,id,code,day,net_value,sum_value,factor,acc_factor,refactor_net_value
0,12053699,001097,2019-07-15,0.591,0.591,1.0,1.0,0.591
1,12041517,001097,2019-07-12,0.588,0.588,1.0,1.0,0.588
2,12032881,001097,2019-07-11,0.586,0.586,1.0,1.0,0.586
3,12022948,001097,2019-07-10,0.587,0.587,1.0,1.0,0.587
4,12018289,001097,2019-07-09,0.588,0.588,1.0,1.0,0.588
5,11999242,001097,2019-07-08,0.587,0.587,1.0,1.0,0.587
6,11987724,001097,2019-07-05,0.597,0.597,1.0,1.0,0.597
7,11969454,001097,2019-07-04,0.596,0.596,1.0,1.0,0.596
8,11969453,001097,2019-07-03,0.599,0.599,1.0,1.0,0.599
9,11961753,001097,2019-07-02,0.609,0.609,1.0,1.0,0.609
10,11953603,001097,2019-07-01,0.606,0.606,1.0,1.0,0.606
11,11953602,001097,2019-06-30,0.589,0.589,1.0,1.0,0.589
12,11940907,001097,2019-06-28,0.589,0.589,1.0,1.0,0.589
13,11924101,001097,2019-06-27,0.591,0.591,1.0,1.0,0.591
14,11919120,001097,2019-06-26,0.583,0.583,1.0,1.0,0.583
15,11913389,001097,2019-06-25,0.582,0.582,1.0,1.0,0.582
16,11905668,001097,2019-06-24,0.588,0.588,1.0,1.0,0.588
17,11894597,001097,2019-06-21,0.585,0.585,1.0,1.0,0.585
18,11886284,001097,2019-06-20,0.584,0.584,1.0,1.0,0.584
19,11878412,001097,2019-06-19,0.57,0.57,1.0,1.0,0.57
20,11869737,001097,2019-06-18,0.564,0.564,1.0,1.0,0.564
21,11861510,001097,2019-06-17,0.562,0.562,1.0,1.0,0.562
22,11852432,001097,2019-06-14,0.566,0.566,1.0,1.0,0.566
23,11843139,001097,2019-06-13,0.57,0.57,1.0,1.0,0.57
24,11834966,001097,2019-06-12,0.571,0.571,1.0,1.0,0.571
25,11824510,001097,2019-06-11,0.574,0.574,1.0,1.0,0.574
26,11818644,001097,2019-06-10,0.557,0.557,1.0,1.0,0.557
27,11808187,001097,2019-06-06,0.55,0.55,1.0,1.0,0.55
28,11800760,001097,2019-06-05,0.558,0.558,1.0,1.0,0.558
29,11791685,001097,2019-06-04,0.558,0.558,1.0,1.0,0.558
30,11784235,001097,2019-06-03,0.565,0.565,1.0,1.0,0.565
31,11773182,001097,2019-05-31,0.568,0.568,1.0,1.0,0.568
32,11766568,001097,2019-05-30,0.568,0.568,1.0,1.0,0.568
33,11757343,001097,2019-05-29,0.57,0.57,1.0,1.0,0.57
34,11751291,001097,2019-05-28,0.572,0.572,1.0,1.0,0.572
35,11741706,001097,2019-05-27,0.566,0.566,1.0,1.0,0.566
36,11731517,001097,2019-05-24,0.56,0.56,1.0,1.0,0.56
37,11723708,001097,2019-05-23,0.561,0.561,1.0,1.0,0.561
38,11716038,001097,2019-05-22,0.57,0.57,1.0,1.0,0.57
39,11708712,001097,2019-05-21,0.571,0.571,1.0,1.0,0.571
40,11701122,001097,2019-05-20,0.564,0.564,1.0,1.0,0.564
41,11698117,001097,2019-05-17,0.571,0.571,1.0,1.0,0.571
42,11683973,001097,2019-05-16,0.584,0.584,1.0,1.0,0.584
43,11676158,001097,2019-05-15,0.579,0.579,1.0,1.0,0.579
44,11668518,001097,2019-05-14,0.568,0.568,1.0,1.0,0.568
45,11659384,001097,2019-05-13,0.572,0.572,1.0,1.0,0.572
46,11655134,001097,2019-05-10,0.579,0.579,1.0,1.0,0.579
47,11644114,001097,2019-05-09,0.56,0.56,1.0,1.0,0.56
48,11630343,001097,2019-05-08,0.568,0.568,1.0,1.0,0.568
49,11624995,001097,2019-05-07,0.575,0.575,1.0,1.0,0.575
50,11618585,001097,2019-05-06,0.572,0.572,1.0,1.0,0.572
51,11603732,001097,2019-04-30,0.605,0.605,1.0,1.0,0.605
52,11597321,001097,2019-04-29,0.6,0.6,1.0,1.0,0.6
53,11586400,001097,2019-04-26,0.603,0.603,1.0,1.0,0.603
54,11583225,001097,2019-04-25,0.609,0.609,1.0,1.0,0.609
55,11575622,001097,2019-04-24,0.621,0.621,1.0,1.0,0.621
56,11562909,001097,2019-04-23,0.617,0.617,1.0,1.0,0.617
57,11557213,001097,2019-04-22,0.622,0.622,1.0,1.0,0.622
58,11548125,001097,2019-04-19,0.635,0.635,1.0,1.0,0.635
59,11540341,001097,2019-04-18,0.63,0.63,1.0,1.0,0.63
60,11532653,001097,2019-04-17,0.633,0.633,1.0,1.0,0.633
61,11525130,001097,2019-04-16,0.634,0.634,1.0,1.0,0.634
62,11516729,001097,2019-04-15,0.624,0.624,1.0,1.0,0.624
63,11506265,001097,2019-04-12,0.627,0.627,1.0,1.0,0.627
64,11499123,001097,2019-04-11,0.631,0.631,1.0,1.0,0.631
65,11489565,001097,2019-04-10,0.646,0.646,1.0,1.0,0.646
66,11480668,001097,2019-04-09,0.651,0.651,1.0,1.0,0.651
67,11472915,001097,2019-04-08,0.65,0.65,1.0,1.0,0.65
68,11460523,001097,2019-04-04,0.654,0.654,1.0,1.0,0.654
69,11450762,001097,2019-04-03,0.653,0.653,1.0,1.0,0.653
70,11443877,001097,2019-04-02,0.642,0.642,1.0,1.0,0.642
71,11435065,001097,2019-04-01,0.644,0.644,1.0,1.0,0.644
72,11423320,001097,2019-03-29,0.621,0.621,1.0,1.0,0.621
73,11417085,001097,2019-03-28,0.593,0.593,1.0,1.0,0.593
74,11409942,001097,2019-03-27,0.6,0.6,1.0,1.0,0.6
75,11401808,001097,2019-03-26,0.594,0.594,1.0,1.0,0.594
76,11393199,001097,2019-03-25,0.601,0.601,1.0,1.0,0.601
77,11383794,001097,2019-03-22,0.612,0.612,1.0,1.0,0.612
78,11376282,001097,2019-03-21,0.614,0.614,1.0,1.0,0.614
79,11368556,001097,2019-03-20,0.612,0.612,1.0,1.0,0.612
80,11361021,001097,2019-03-19,0.614,0.614,1.0,1.0,0.614
81,11352614,001097,2019-03-18,0.615,0.615,1.0,1.0,0.615
82,11343129,001097,2019-03-15,0.596,0.596,1.0,1.0,0.596
83,11335890,001097,2019-03-14,0.585,0.585,1.0,1.0,0.585
84,11327889,001097,2019-03-13,0.595,0.595,1.0,1.0,0.595
85,11321478,001097,2019-03-12,0.608,0.608,1.0,1.0,0.608
86,11312792,001097,2019-03-11,0.601,0.601,1.0,1.0,0.601
87,11303068,001097,2019-03-08,0.587,0.587,1.0,1.0,0.587
88,11295411,001097,2019-03-07,0.614,0.614,1.0,1.0,0.614
89,11287816,001097,2019-03-06,0.617,0.617,1.0,1.0,0.617
90,11280497,001097,2019-03-05,0.607,0.607,1.0,1.0,0.607
91,11271991,001097,2019-03-04,0.599,0.599,1.0,1.0,0.599
92,11263966,001097,2019-03-01,0.589,0.589,1.0,1.0,0.589
93,11255934,001097,2019-02-28,0.576,0.576,1.0,1.0,0.576
94,11248875,001097,2019-02-27,0.577,0.577,1.0,1.0,0.577
95,11241154,001097,2019-02-26,0.582,0.582,1.0,1.0,0.582
96,11232935,001097,2019-02-25,0.588,0.588,1.0,1.0,0.588
97,11224210,001097,2019-02-22,0.558,0.558,1.0,1.0,0.558
98,11216934,001097,2019-02-21,0.542,0.542,1.0,1.0,0.542
99,11210677,001097,2019-02-20,0.543,0.543,1.0,1.0,0.543
100,11202530,001097,2019-02-19,0.541,0.541,1.0,1.0,0.541
101,11195458,001097,2019-02-18,0.543,0.543,1.0,1.0,0.543
102,11185277,001097,2019-02-15,0.525,0.525,1.0,1.0,0.525
103,11178245,001097,2019-02-14,0.538,0.538,1.0,1.0,0.538
104,11172016,001097,2019-02-13,0.537,0.537,1.0,1.0,0.537
105,11163656,001097,2019-02-12,0.527,0.527,1.0,1.0,0.527
106,11154791,001097,2019-02-11,0.526,0.526,1.0,1.0,0.526
107,11139016,001097,2019-02-01,0.518,0.518,1.0,1.0,0.518
108,11133423,001097,2019-01-31,0.51,0.51,1.0,1.0,0.51
109,11125072,001097,2019-01-30,0.509,0.509,1.0,1.0,0.509
110,11118553,001097,2019-01-29,0.513,0.513,1.0,1.0,0.513
111,11109205,001097,2019-01-28,0.51,0.51,1.0,1.0,0.51
112,11100820,001097,2019-01-25,0.512,0.512,1.0,1.0,0.512
113,11093811,001097,2019-01-24,0.506,0.506,1.0,1.0,0.506
114,11086361,001097,2019-01-23,0.504,0.504,1.0,1.0,0.504
115,11079031,001097,2019-01-22,0.503,0.503,1.0,1.0,0.503
116,11069870,001097,2019-01-21,0.511,0.511,1.0,1.0,0.511
117,11062789,001097,2019-01-18,0.509,0.509,1.0,1.0,0.509
118,11054480,001097,2019-01-17,0.498,0.498,1.0,1.0,0.498
119,11046888,001097,2019-01-16,0.499,0.499,1.0,1.0,0.499
120,11039535,001097,2019-01-15,0.499,0.499,1.0,1.0,0.499
121,11031771,001097,2019-01-14,0.492,0.492,1.0,1.0,0.492
122,11020648,001097,2019-01-11,0.494,0.494,1.0,1.0,0.494
123,11013548,001097,2019-01-10,0.491,0.491,1.0,1.0,0.491
124,11005529,001097,2019-01-09,0.492,0.492,1.0,1.0,0.492
125,10997685,001097,2019-01-08,0.488,0.488,1.0,1.0,0.488
126,10989515,001097,2019-01-07,0.491,0.491,1.0,1.0,0.491
127,10978240,001097,2019-01-04,0.486,0.486,1.0,1.0,0.486
128,10968917,001097,2019-01-03,0.477,0.477,1.0,1.0,0.477
129,10966308,001097,2019-01-02,0.477,0.477,1.0,1.0,0.477
130,10952418,001097,2018-12-31,0.483,0.483,1.0,1.0,0.483
131,10942635,001097,2018-12-28,0.483,0.483,1.0,1.0,0.483
132,10934842,001097,2018-12-27,0.483,0.483,1.0,1.0,0.483
133,10927344,001097,2018-12-26,0.487,0.487,1.0,1.0,0.487
134,10920212,001097,2018-12-25,0.489,0.489,1.0,1.0,0.489
135,10912798,001097,2018-12-24,0.495,0.495,1.0,1.0,0.495
136,10909273,001097,2018-12-21,0.492,0.492,1.0,1.0,0.492
137,10895637,001097,2018-12-20,0.497,0.497,1.0,1.0,0.497
138,10887183,001097,2018-12-19,0.499,0.499,1.0,1.0,0.499
139,10879848,001097,2018-12-18,0.506,0.506,1.0,1.0,0.506
140,10871950,001097,2018-12-17,0.511,0.511,1.0,1.0,0.511
141,10863485,001097,2018-12-14,0.511,0.511,1.0,1.0,0.511
142,10857425,001097,2018-12-13,0.52,0.52,1.0,1.0,0.52
143,10850349,001097,2018-12-12,0.513,0.513,1.0,1.0,0.513
144,10840229,001097,2018-12-11,0.511,0.511,1.0,1.0,0.511
145,10833268,001097,2018-12-10,0.508,0.508,1.0,1.0,0.508
146,10826274,001097,2018-12-07,0.512,0.512,1.0,1.0,0.512
147,10817720,001097,2018-12-06,0.512,0.512,1.0,1.0,0.512
148,10810095,001097,2018-12-05,0.523,0.523,1.0,1.0,0.523
149,10802967,001097,2018-12-04,0.524,0.524,1.0,1.0,0.524
150,10795828,001097,2018-12-03,0.521,0.521,1.0,1.0,0.521
151,10785860,001097,2018-11-30,0.509,0.509,1.0,1.0,0.509
152,10778508,001097,2018-11-29,0.503,0.503,1.0,1.0,0.503
153,10772345,001097,2018-11-28,0.51,0.51,1.0,1.0,0.51
154,10763945,001097,2018-11-27,0.504,0.504,1.0,1.0,0.504
155,10755900,001097,2018-11-26,0.505,0.505,1.0,1.0,0.505
156,10748204,001097,2018-11-23,0.509,0.509,1.0,1.0,0.509
157,10740364,001097,2018-11-22,0.523,0.523,1.0,1.0,0.523
158,10733450,001097,2018-11-21,0.526,0.526,1.0,1.0,0.526
159,10727319,001097,2018-11-20,0.525,0.525,1.0,1.0,0.525
160,10718002,001097,2018-11-19,0.535,0.535,1.0,1.0,0.535
161,10709885,001097,2018-11-16,0.533,0.533,1.0,1.0,0.533
162,10703044,001097,2018-11-15,0.535,0.535,1.0,1.0,0.535
163,10694989,001097,2018-11-14,0.53,0.53,1.0,1.0,0.53
164,10687803,001097,2018-11-13,0.533,0.533,1.0,1.0,0.533
165,10679618,001097,2018-11-12,0.528,0.528,1.0,1.0,0.528
166,10671268,001097,2018-11-09,0.521,0.521,1.0,1.0,0.521
167,10662138,001097,2018-11-08,0.526,0.526,1.0,1.0,0.526
168,10657256,001097,2018-11-07,0.528,0.528,1.0,1.0,0.528
169,10649646,001097,2018-11-06,0.533,0.533,1.0,1.0,0.533
170,10640115,001097,2018-11-05,0.535,0.535,1.0,1.0,0.535
171,10630371,001097,2018-11-02,0.539,0.539,1.0,1.0,0.539
172,10621997,001097,2018-11-01,0.524,0.524,1.0,1.0,0.524
173,10614578,001097,2018-10-31,0.524,0.524,1.0,1.0,0.524
174,10607756,001097,2018-10-30,0.517,0.517,1.0,1.0,0.517
175,10598592,001097,2018-10-29,0.512,0.512,1.0,1.0,0.512
176,10590334,001097,2018-10-26,0.523,0.523,1.0,1.0,0.523
177,10584128,001097,2018-10-25,0.525,0.525,1.0,1.0,0.525
178,10575159,001097,2018-10-24,0.525,0.525,1.0,1.0,0.525
179,10570512,001097,2018-10-23,0.526,0.526,1.0,1.0,0.526
180,10561122,001097,2018-10-22,0.536,0.536,1.0,1.0,0.536
181,10553308,001097,2018-10-19,0.515,0.515,1.0,1.0,0.515
182,10545866,001097,2018-10-18,0.502,0.502,1.0,1.0,0.502
183,10538921,001097,2018-10-17,0.516,0.516,1.0,1.0,0.516
184,10449642,001097,2018-10-16,0.515,0.515,1.0,1.0,0.515
185,10402884,001097,2018-10-15,0.525,0.525,1.0,1.0,0.525
186,9955718,001097,2018-10-12,0.53,0.53,1.0,1.0,0.53
187,9813046,001097,2018-10-11,0.524,0.524,1.0,1.0,0.524
188,9639658,001097,2018-10-10,0.55,0.55,1.0,1.0,0.55
189,9549298,001097,2018-10-09,0.549,0.549,1.0,1.0,0.549
190,9506970,001097,2018-10-08,0.556,0.556,1.0,1.0,0.556
191,9304522,001097,2018-09-28,0.575,0.575,1.0,1.0,0.575
192,9298790,001097,2018-09-27,0.572,0.572,1.0,1.0,0.572
193,9278477,001097,2018-09-26,0.573,0.573,1.0,1.0,0.573
194,9266023,001097,2018-09-25,0.568,0.568,1.0,1.0,0.568
195,9234634,001097,2018-09-21,0.571,0.571,1.0,1.0,0.571
196,9227708,001097,2018-09-20,0.56,0.56,1.0,1.0,0.56
197,9210180,001097,2018-09-19,0.562,0.562,1.0,1.0,0.562
198,9198063,001097,2018-09-18,0.556,0.556,1.0,1.0,0.556
199,9183697,001097,2018-09-17,0.541,0.541,1.0,1.0,0.541
200,9143193,001097,2018-09-14,0.549,0.549,1.0,1.0,0.549
201,9143192,001097,2018-09-13,0.557,0.557,1.0,1.0,0.557
202,9138365,001097,2018-09-12,0.554,0.554,1.0,1.0,0.554
203,9109205,001097,2018-09-11,0.559,0.559,1.0,1.0,0.559
204,9095866,001097,2018-09-10,0.568,0.568,1.0,1.0,0.568
205,9067256,001097,2018-09-07,0.579,0.579,1.0,1.0,0.579
206,9058742,001097,2018-09-06,0.578,0.578,1.0,1.0,0.578
207,9058741,001097,2018-09-05,0.579,0.579,1.0,1.0,0.579
208,9039079,001097,2018-09-04,0.59,0.59,1.0,1.0,0.59
209,9005695,001097,2018-09-03,0.582,0.582,1.0,1.0,0.582
210,8977798,001097,2018-08-31,0.58,0.58,1.0,1.0,0.58
211,8969444,001097,2018-08-30,0.586,0.586,1.0,1.0,0.586
212,8953679,001097,2018-08-29,0.598,0.598,1.0,1.0,0.598
213,8943880,001097,2018-08-28,0.604,0.604,1.0,1.0,0.604
214,8942355,001097,2018-08-27,0.603,0.603,1.0,1.0,0.603
215,8897506,001097,2018-08-24,0.588,0.588,1.0,1.0,0.588
216,8892412,001097,2018-08-23,0.591,0.591,1.0,1.0,0.591
217,8884113,001097,2018-08-22,0.589,0.589,1.0,1.0,0.589
218,8857553,001097,2018-08-21,0.592,0.592,1.0,1.0,0.592
219,8855461,001097,2018-08-20,0.585,0.585,1.0,1.0,0.585
220,8810386,001097,2018-08-17,0.579,0.579,1.0,1.0,0.579
221,8807205,001097,2018-08-16,0.59,0.59,1.0,1.0,0.59
222,8787549,001097,2018-08-15,0.596,0.596,1.0,1.0,0.596
223,8772797,001097,2018-08-14,0.61,0.61,1.0,1.0,0.61
224,8763745,001097,2018-08-13,0.618,0.618,1.0,1.0,0.618
225,8728740,001097,2018-08-10,0.609,0.609,1.0,1.0,0.609
226,8725013,001097,2018-08-09,0.604,0.604,1.0,1.0,0.604
227,8702778,001097,2018-08-08,0.588,0.588,1.0,1.0,0.588
228,8702777,001097,2018-08-07,0.6,0.6,1.0,1.0,0.6
229,8676507,001097,2018-08-06,0.583,0.583,1.0,1.0,0.583
230,8649054,001097,2018-08-03,0.593,0.593,1.0,1.0,0.593
231,8643887,001097,2018-08-02,0.606,0.606,1.0,1.0,0.606
232,8639193,001097,2018-08-01,0.613,0.613,1.0,1.0,0.613
233,8606542,001097,2018-07-31,0.628,0.628,1.0,1.0,0.628
234,8591043,001097,2018-07-30,0.633,0.633,1.0,1.0,0.633
235,8569851,001097,2018-07-27,0.638,0.638,1.0,1.0,0.638
236,8565290,001097,2018-07-26,0.64,0.64,1.0,1.0,0.64
237,8543726,001097,2018-07-25,0.648,0.648,1.0,1.0,0.648
238,8540468,001097,2018-07-24,0.643,0.643,1.0,1.0,0.643
239,8523473,001097,2018-07-23,0.64,0.64,1.0,1.0,0.64
240,8490351,001097,2018-07-20,0.637,0.637,1.0,1.0,0.637
241,8478934,001097,2018-07-19,0.629,0.629,1.0,1.0,0.629
242,8474981,001097,2018-07-18,0.632,0.632,1.0,1.0,0.632
243,8455161,001097,2018-07-17,0.637,0.637,1.0,1.0,0.637
244,8455160,001097,2018-07-16,0.641,0.641,1.0,1.0,0.641
245,8410294,001097,2018-07-13,0.639,0.639,1.0,1.0,0.639
246,8400578,001097,2018-07-12,0.631,0.631,1.0,1.0,0.631
247,8385148,001097,2018-07-11,0.614,0.614,1.0,1.0,0.614
248,8379271,001097,2018-07-10,0.62,0.62,1.0,1.0,0.62
249,8347998,001097,2018-07-09,0.611,0.611,1.0,1.0,0.611
250,8316679,001097,2018-07-06,0.595,0.595,1.0,1.0,0.595
251,8309658,001097,2018-07-05,0.596,0.596,1.0,1.0,0.596
252,8295670,001097,2018-07-04,0.61,0.61,1.0,1.0,0.61
253,8263379,001097,2018-07-03,0.619,0.619,1.0,1.0,0.619
254,8250444,001097,2018-07-02,0.615,0.615,1.0,1.0,0.615
255,8214114,001097,2018-06-30,0.621,0.621,1.0,1.0,0.621
256,8214113,001097,2018-06-29,0.621,0.621,1.0,1.0,0.621
257,8212016,001097,2018-06-28,0.598,0.598,1.0,1.0,0.598
258,8186902,001097,2018-06-27,0.604,0.604,1.0,1.0,0.604
259,8092114,001097,2018-06-26,0.615,0.615,1.0,1.0,0.615
260,8072005,001097,2018-06-25,0.616,0.616,1.0,1.0,0.616
261,8035797,001097,2018-06-22,0.623,0.623,1.0,1.0,0.623
262,8028952,001097,2018-06-21,0.612,0.612,1.0,1.0,0.612
263,8011792,001097,2018-06-20,0.623,0.623,1.0,1.0,0.623
264,7991719,001097,2018-06-19,0.611,0.611,1.0,1.0,0.611
265,7920509,001097,2018-06-15,0.638,0.638,1.0,1.0,0.638
266,7911118,001097,2018-06-14,0.649,0.649,1.0,1.0,0.649
267,7893444,001097,2018-06-13,0.649,0.649,1.0,1.0,0.649
268,7873072,001097,2018-06-12,0.658,0.658,1.0,1.0,0.658
269,7847497,001097,2018-06-11,0.646,0.646,1.0,1.0,0.646
270,7847496,001097,2018-06-08,0.65,0.65,1.0,1.0,0.65
271,7803888,001097,2018-06-07,0.653,0.653,1.0,1.0,0.653
272,7770854,001097,2018-06-06,0.656,0.656,1.0,1.0,0.656
273,7762684,001097,2018-06-05,0.655,0.655,1.0,1.0,0.655
274,7745463,001097,2018-06-04,0.64,0.64,1.0,1.0,0.64
275,7701309,001097,2018-06-01,0.638,0.638,1.0,1.0,0.638
276,7694150,001097,2018-05-31,0.648,0.648,1.0,1.0,0.648
277,7673822,001097,2018-05-30,0.636,0.636,1.0,1.0,0.636
278,7651548,001097,2018-05-29,0.648,0.648,1.0,1.0,0.648
279,7633286,001097,2018-05-28,0.655,0.655,1.0,1.0,0.655
280,7587502,001097,2018-05-25,0.661,0.661,1.0,1.0,0.661
281,7571543,001097,2018-05-24,0.665,0.665,1.0,1.0,0.665
282,7571542,001097,2018-05-23,0.668,0.668,1.0,1.0,0.668
283,7552548,001097,2018-05-22,0.675,0.675,1.0,1.0,0.675
284,7532900,001097,2018-05-21,0.672,0.672,1.0,1.0,0.672
285,7514669,001097,2018-05-18,0.668,0.668,1.0,1.0,0.668
286,7489885,001097,2018-05-17,0.667,0.667,1.0,1.0,0.667
287,7479490,001097,2018-05-16,0.676,0.676,1.0,1.0,0.676
288,7444704,001097,2018-05-15,0.677,0.677,1.0,1.0,0.677
289,7430071,001097,2018-05-14,0.67,0.67,1.0,1.0,0.67
290,7391714,001097,2018-05-11,0.668,0.668,1.0,1.0,0.668
291,7374930,001097,2018-05-10,0.679,0.679,1.0,1.0,0.679
292,7358788,001097,2018-05-09,0.677,0.677,1.0,1.0,0.677
293,7340563,001097,2018-05-08,0.68,0.68,1.0,1.0,0.68
294,7321473,001097,2018-05-07,0.68,0.68,1.0,1.0,0.68
295,7281895,001097,2018-05-04,0.67,0.67,1.0,1.0,0.67
296,7270318,001097,2018-05-03,0.669,0.669,1.0,1.0,0.669
297,7249145,001097,2018-05-02,0.663,0.663,1.0,1.0,0.663
298,7180953,001097,2018-04-27,0.661,0.661,1.0,1.0,0.661
299,7167594,001097,2018-04-26,0.663,0.663,1.0,1.0,0.663
300,7155916,001097,2018-04-25,0.673,0.673,1.0,1.0,0.673
301,7149980,001097,2018-04-24,0.67,0.67,1.0,1.0,0.67
302,7126930,001097,2018-04-23,0.654,0.654,1.0,1.0,0.654
303,7088006,001097,2018-04-20,0.662,0.662,1.0,1.0,0.662
304,7076452,001097,2018-04-19,0.674,0.674,1.0,1.0,0.674
305,7057482,001097,2018-04-18,0.671,0.671,1.0,1.0,0.671
306,7037500,001097,2018-04-17,0.66,0.66,1.0,1.0,0.66
307,7022371,001097,2018-04-16,0.674,0.674,1.0,1.0,0.674
308,6977445,001097,2018-04-13,0.671,0.671,1.0,1.0,0.671
309,6966645,001097,2018-04-12,0.674,0.674,1.0,1.0,0.674
310,6946759,001097,2018-04-11,0.676,0.676,1.0,1.0,0.676
311,6926643,001097,2018-04-10,0.677,0.677,1.0,1.0,0.677
312,6912621,001097,2018-04-09,0.673,0.673,1.0,1.0,0.673
313,6852899,001097,2018-04-04,0.67,0.67,1.0,1.0,0.67
314,6831671,001097,2018-04-03,0.675,0.675,1.0,1.0,0.675
315,6812602,001097,2018-04-02,0.682,0.682,1.0,1.0,0.682
316,6769348,001097,2018-03-30,0.676,0.676,1.0,1.0,0.676
317,6758989,001097,2018-03-29,0.662,0.662,1.0,1.0,0.662
318,6736456,001097,2018-03-28,0.66,0.66,1.0,1.0,0.66
319,6720202,001097,2018-03-27,0.668,0.668,1.0,1.0,0.668
320,6700167,001097,2018-03-26,0.659,0.659,1.0,1.0,0.659
321,6652632,001097,2018-03-23,0.65,0.65,1.0,1.0,0.65
322,6644780,001097,2018-03-22,0.675,0.675,1.0,1.0,0.675
323,6626461,001097,2018-03-21,0.681,0.681,1.0,1.0,0.681
324,6606966,001097,2018-03-20,0.687,0.687,1.0,1.0,0.687
325,6585602,001097,2018-03-19,0.678,0.678,1.0,1.0,0.678
326,6562053,001097,2018-03-16,0.676,0.676,1.0,1.0,0.676
327,6537435,001097,2018-03-15,0.684,0.684,1.0,1.0,0.684
328,6537434,001097,2018-03-14,0.685,0.685,1.0,1.0,0.685
329,6449962,001097,2018-03-13,0.686,0.686,1.0,1.0,0.686
330,6449961,001097,2018-03-12,0.695,0.695,1.0,1.0,0.695
331,6389151,001097,2018-03-09,0.689,0.689,1.0,1.0,0.689
332,5142430,001097,2018-03-08,0.687,0.687,1.0,1.0,0.687
333,5130652,001097,2018-03-07,0.678,0.678,1.0,1.0,0.678
334,5123404,001097,2018-03-06,0.686,0.686,1.0,1.0,0.686
335,5035462,001097,2018-03-05,0.674,0.674,1.0,1.0,0.674
336,5035461,001097,2018-03-02,0.677,0.677,1.0,1.0,0.677
337,4761266,001097,2018-03-01,0.687,0.687,1.0,1.0,0.687
338,4761265,001097,2018-02-28,0.68,0.68,1.0,1.0,0.68
339,4761264,001097,2018-02-27,0.683,0.683,1.0,1.0,0.683
340,4761263,001097,2018-02-26,0.687,0.687,1.0,1.0,0.687
341,4761262,001097,2018-02-23,0.674,0.674,1.0,1.0,0.674
342,4761261,001097,2018-02-22,0.673,0.673,1.0,1.0,0.673
343,4761260,001097,2018-02-14,0.66,0.66,1.0,1.0,0.66
344,4761259,001097,2018-02-13,0.653,0.653,1.0,1.0,0.653
345,4761258,001097,2018-02-12,0.648,0.648,1.0,1.0,0.648
346,4761257,001097,2018-02-09,0.634,0.634,1.0,1.0,0.634
347,4761256,001097,2018-02-08,0.651,0.651,1.0,1.0,0.651
348,4761255,001097,2018-02-07,0.649,0.649,1.0,1.0,0.649
349,4761254,001097,2018-02-06,0.658,0.658,1.0,1.0,0.658
350,4761253,001097,2018-02-05,0.68,0.68,1.0,1.0,0.68
351,4761252,001097,2018-02-02,0.683,0.683,1.0,1.0,0.683
352,4761251,001097,2018-02-01,0.674,0.674,1.0,1.0,0.674
353,4761250,001097,2018-01-31,0.681,0.681,1.0,1.0,0.681
354,4761249,001097,2018-01-30,0.682,0.682,1.0,1.0,0.682
355,4761248,001097,2018-01-29,0.686,0.686,1.0,1.0,0.686
