,id,code,day,net_value,sum_value,factor,acc_factor,refactor_net_value
0,11428080,150306,2019-03-29,1.231,0.294,1.0,0.057207,0.070422
1,11420390,150306,2019-03-28,1.169,0.28,1.0,0.057207,0.066875
2,11412926,150306,2019-03-27,1.191,0.285,1.0,0.057207,0.068134
3,11404923,150306,2019-03-26,1.153,0.276,1.0,0.057207,0.06596
4,11396340,150306,2019-03-25,1.2,0.287,1.0,0.057207,0.068648
5,11387377,150306,2019-03-22,1.252,0.299,1.0,0.057207,0.071623
6,11379493,150306,2019-03-21,1.242,0.297,1.0,0.057207,0.071051
7,11371749,150306,2019-03-20,1.212,0.29,1.0,0.057207,0.069335
8,11364224,150306,2019-03-19,1.218,0.291,1.0,0.057207,0.069678
9,11355757,150306,2019-03-18,1.21,0.289,1.0,0.057207,0.06922
10,11346750,150306,2019-03-15,1.143,0.273,1.0,0.057207,0.065388
11,11339050,150306,2019-03-14,1.123,0.269,1.0,0.057207,0.064243
12,11330929,150306,2019-03-13,1.157,0.277,1.0,0.057207,0.066188
13,11324090,150306,2019-03-12,1.185,0.283,1.0,0.057207,0.06779
14,11317597,150306,2019-03-11,1.153,0.276,1.0,0.057207,0.06596
15,11306563,150306,2019-03-08,1.082,0.259,1.0,0.057207,0.061898
16,11298618,150306,2019-03-07,1.16,0.277,1.0,0.057207,0.06636
17,11294382,150306,2019-03-06,1.166,0.279,1.0,0.057207,0.066703
18,11283628,150306,2019-03-05,1.142,0.273,1.0,0.057207,0.06533
19,11275129,150306,2019-03-04,1.106,0.265,1.0,0.057207,0.063271
20,11266766,150306,2019-03-01,1.073,0.257,1.0,0.057207,0.061383
21,11258812,150306,2019-02-28,1.055,0.252,1.0,0.057207,0.060353
22,11251558,150306,2019-02-27,1.041,0.249,1.0,0.057207,0.059552
23,11244172,150306,2019-02-26,1.047,0.25,1.0,0.057207,0.059896
24,11235950,150306,2019-02-25,1.051,0.251,1.0,0.057207,0.060125
25,11227630,150306,2019-02-22,0.953,0.228,1.0,0.057207,0.054518
26,11219995,150306,2019-02-21,0.915,0.219,1.0,0.057207,0.052344
27,11213155,150306,2019-02-20,0.926,0.221,1.0,0.057207,0.052974
28,11205580,150306,2019-02-19,0.936,0.224,1.0,0.057207,0.053546
29,11194116,150306,2019-02-18,0.944,0.226,1.0,0.057207,0.054003
30,11188786,150306,2019-02-15,0.884,0.211,1.0,0.057207,0.050571
31,11177311,150306,2019-02-14,0.908,0.217,1.0,0.057207,0.051944
32,11170621,150306,2019-02-13,0.898,0.215,1.0,0.057207,0.051372
33,11166580,150306,2019-02-12,0.865,0.207,1.0,0.057207,0.049484
34,11157936,150306,2019-02-11,0.837,0.2,1.0,0.057207,0.047882
35,11143532,150306,2019-02-01,0.802,0.192,1.0,0.057207,0.04588
36,11136209,150306,2019-01-31,0.752,0.18,1.0,0.057207,0.04302
37,11128170,150306,2019-01-30,0.756,0.181,1.0,0.057207,0.043248
38,11121079,150306,2019-01-29,0.78,0.187,1.0,0.057207,0.044621
39,11112290,150306,2019-01-28,0.79,0.189,1.0,0.057207,0.045194
40,11103707,150306,2019-01-25,0.801,0.192,1.0,0.057207,0.045823
41,11092379,150306,2019-01-24,0.803,0.192,1.0,0.057207,0.045937
42,11084960,150306,2019-01-23,0.797,0.191,1.0,0.057207,0.045594
43,11081439,150306,2019-01-22,0.799,0.191,1.0,0.057207,0.045708
44,11072925,150306,2019-01-21,0.823,0.197,1.0,0.057207,0.047081
45,11061353,150306,2019-01-18,0.812,0.194,1.0,0.057207,0.046452
46,11057278,150306,2019-01-17,0.788,0.188,1.0,0.057207,0.045079
47,11049900,150306,2019-01-16,0.796,0.19,1.0,0.057207,0.045537
48,11042643,150306,2019-01-15,0.79,0.189,1.0,0.057207,0.045194
49,11034383,150306,2019-01-14,0.756,0.181,1.0,0.057207,0.043248
50,11023773,150306,2019-01-11,0.781,0.187,1.0,0.057207,0.044679
51,11012222,150306,2019-01-10,0.777,0.186,1.0,0.057207,0.04445
52,11008217,150306,2019-01-09,0.787,0.188,1.0,0.057207,0.045022
53,11000547,150306,2019-01-08,0.773,0.185,1.0,0.057207,0.044221
54,10991882,150306,2019-01-07,0.779,0.186,1.0,0.057207,0.044564
55,10981618,150306,2019-01-04,0.767,0.183,1.0,0.057207,0.043878
56,10971924,150306,2019-01-03,0.728,0.174,1.0,0.057207,0.041647
57,10962476,150306,2019-01-02,0.754,0.18,1.0,0.057207,0.043134
58,10954969,150306,2018-12-31,0.79,0.189,1.0,0.057207,0.045194
59,10946567,150306,2018-12-28,0.79,0.189,1.0,0.057207,0.045194
60,10938339,150306,2018-12-27,0.782,0.187,1.0,0.057207,0.044736
61,10930708,150306,2018-12-26,0.795,0.19,1.0,0.057207,0.04548
62,10926515,150306,2018-12-25,0.799,0.191,1.0,0.057207,0.045708
63,10916721,150306,2018-12-24,0.809,0.193,1.0,0.057207,0.04628
64,10906087,150306,2018-12-21,0.791,0.189,1.0,0.057207,0.045251
65,10898889,150306,2018-12-20,0.805,0.193,1.0,0.057207,0.046052
66,10891255,150306,2018-12-19,0.801,0.192,1.0,0.057207,0.045823
67,10883141,150306,2018-12-18,0.834,0.199,1.0,0.057207,0.047711
68,10875394,150306,2018-12-17,0.848,0.203,1.0,0.057207,0.048512
69,10867082,150306,2018-12-14,0.866,0.207,1.0,0.057207,0.049541
70,10855827,150306,2018-12-13,0.91,0.218,1.0,0.057207,0.052058
71,10852819,150306,2018-12-12,0.89,0.213,1.0,0.057207,0.050914
72,10843528,150306,2018-12-11,0.894,0.214,1.0,0.057207,0.051143
73,10836387,150306,2018-12-10,0.88,0.21,1.0,0.057207,0.050342
74,10829032,150306,2018-12-07,0.897,0.215,1.0,0.057207,0.051315
75,10820982,150306,2018-12-06,0.917,0.219,1.0,0.057207,0.052459
76,10813269,150306,2018-12-05,0.969,0.232,1.0,0.057207,0.055434
77,10806143,150306,2018-12-04,0.967,0.231,1.0,0.057207,0.055319
78,10798520,150306,2018-12-03,0.953,0.228,1.0,0.057207,0.054518
79,10789531,150306,2018-11-30,0.899,0.215,1.0,0.057207,0.051429
80,10781760,150306,2018-11-29,0.884,0.211,1.0,0.057207,0.050571
81,10775152,150306,2018-11-28,0.916,0.219,1.0,0.057207,0.052402
82,10767146,150306,2018-11-27,0.89,0.213,1.0,0.057207,0.050914
83,10759119,150306,2018-11-26,0.882,0.211,1.0,0.057207,0.050457
84,10747096,150306,2018-11-23,0.886,0.212,1.0,0.057207,0.050685
85,10743354,150306,2018-11-22,0.938,0.224,1.0,0.057207,0.05366
86,10736641,150306,2018-11-21,0.933,0.223,1.0,0.057207,0.053374
87,10724692,150306,2018-11-20,0.919,0.22,1.0,0.057207,0.052573
88,10721121,150306,2018-11-19,0.963,0.23,1.0,0.057207,0.05509
89,10713089,150306,2018-11-16,0.967,0.231,1.0,0.057207,0.055319
90,10706218,150306,2018-11-15,0.967,0.231,1.0,0.057207,0.055319
91,10698113,150306,2018-11-14,0.939,0.225,1.0,0.057207,0.053717
92,10691041,150306,2018-11-13,0.948,0.227,1.0,0.057207,0.054232
93,10682723,150306,2018-11-12,0.914,0.219,1.0,0.057207,0.052287
94,10674311,150306,2018-11-09,0.876,0.21,1.0,0.057207,0.050113
95,10666019,150306,2018-11-08,0.886,0.212,1.0,0.057207,0.050685
96,10655099,150306,2018-11-07,0.896,0.214,1.0,0.057207,0.051257
97,10646660,150306,2018-11-06,0.898,0.215,1.0,0.057207,0.051372
98,10643106,150306,2018-11-05,0.895,0.214,1.0,0.057207,0.0512
99,10633857,150306,2018-11-02,0.901,0.215,1.0,0.057207,0.051544
100,10625923,150306,2018-11-01,0.829,0.198,1.0,0.057207,0.047425
101,10618498,150306,2018-10-31,0.811,0.194,1.0,0.057207,0.046395
102,10611111,150306,2018-10-30,0.777,0.186,1.0,0.057207,0.04445
103,10602429,150306,2018-10-29,0.749,0.179,1.0,0.057207,0.042848
104,10593805,150306,2018-10-26,0.794,0.19,1.0,0.057207,0.045422
105,10587156,150306,2018-10-25,0.81,0.194,1.0,0.057207,0.046338
106,10579033,150306,2018-10-24,0.818,0.196,1.0,0.057207,0.046795
107,10567940,150306,2018-10-23,0.83,0.199,1.0,0.057207,0.047482
108,10564305,150306,2018-10-22,0.868,0.208,1.0,0.057207,0.049656
109,10556509,150306,2018-10-19,0.785,0.188,1.0,0.057207,0.044907
110,10549026,150306,2018-10-18,0.735,0.176,1.0,0.057207,0.042047
111,10542081,150306,2018-10-17,0.775,0.185,1.0,0.057207,0.044335
112,10526229,150306,2018-10-16,0.771,0.184,1.0,0.057207,0.044107
113,10386726,150306,2018-10-15,0.803,0.192,1.0,0.057207,0.045937
114,9988912,150306,2018-10-12,0.831,0.199,1.0,0.057207,0.047539
115,9890027,150306,2018-10-11,0.828,0.198,1.0,0.057207,0.047367
116,9668103,150306,2018-10-10,0.932,0.223,1.0,0.057207,0.053317
117,9578586,150306,2018-10-09,0.94,0.225,1.0,0.057207,0.053775
118,9532981,150306,2018-10-08,0.946,0.226,1.0,0.057207,0.054118
119,9308161,150306,2018-09-28,1.029,0.246,1.0,0.057207,0.058866
120,9301837,150306,2018-09-27,1.001,0.239,1.0,0.057207,0.057264
121,9281366,150306,2018-09-26,1.015,0.243,1.0,0.057207,0.058065
122,9268747,150306,2018-09-25,0.994,0.238,1.0,0.057207,0.056864
123,9238612,150306,2018-09-21,1.002,0.24,1.0,0.057207,0.057321
124,9231481,150306,2018-09-20,0.96,0.23,1.0,0.057207,0.054919
125,9214813,150306,2018-09-19,0.962,0.23,1.0,0.057207,0.055033
126,9193971,150306,2018-09-18,0.936,0.224,1.0,0.057207,0.053546
127,9186899,150306,2018-09-17,0.901,0.215,1.0,0.057207,0.051544
128,9148757,150306,2018-09-14,0.935,0.224,1.0,0.057207,0.053489
129,9140697,150306,2018-09-13,0.949,0.227,1.0,0.057207,0.054289
130,9125166,150306,2018-09-12,0.955,0.228,1.0,0.057207,0.054633
131,9105641,150306,2018-09-11,0.973,0.233,1.0,0.057207,0.055662
132,9097996,150306,2018-09-10,0.975,0.233,1.0,0.057207,0.055777
133,9070730,150306,2018-09-07,1.014,0.243,1.0,0.057207,0.058008
134,9063114,150306,2018-09-06,0.998,0.239,1.0,0.057207,0.057093
135,9042039,150306,2018-09-05,1.016,0.243,1.0,0.057207,0.058122
136,9013593,150306,2018-09-04,1.044,0.25,1.0,0.057207,0.059724
137,9013592,150306,2018-09-03,1.026,0.245,1.0,0.057207,0.058694
138,8981861,150306,2018-08-31,1.025,0.245,1.0,0.057207,0.058637
139,8973201,150306,2018-08-30,1.059,0.253,1.0,0.057207,0.060582
140,8957824,150306,2018-08-29,1.087,0.26,1.0,0.057207,0.062184
141,8947624,150306,2018-08-28,1.095,0.262,1.0,0.057207,0.062642
142,8931229,150306,2018-08-27,1.093,0.261,1.0,0.057207,0.062527
143,8900983,150306,2018-08-24,1.036,0.248,1.0,0.057207,0.059266
144,8894346,150306,2018-08-23,1.038,0.248,1.0,0.057207,0.059381
145,8888973,150306,2018-08-22,1.03,0.246,1.0,0.057207,0.058923
146,8862015,150306,2018-08-21,1.048,0.251,1.0,0.057207,0.059953
147,8853791,150306,2018-08-20,1.0,0.239,0.239159,0.057207,0.057207
148,8839667,150306,2018-08-17,0.242,0.242,1.0,1.0,0.242
149,8804945,150306,2018-08-16,0.27,0.27,1.0,1.0,0.27
150,8790177,150306,2018-08-15,0.28,0.28,1.0,1.0,0.28
151,8776307,150306,2018-08-14,0.318,0.318,1.0,1.0,0.318
152,8761965,150306,2018-08-13,0.324,0.324,1.0,1.0,0.324
153,8732363,150306,2018-08-10,0.325,0.325,1.0,1.0,0.325
154,8732362,150306,2018-08-09,0.309,0.309,1.0,1.0,0.309
155,8705953,150306,2018-08-08,0.275,0.275,1.0,1.0,0.275
156,8705952,150306,2018-08-07,0.301,0.301,1.0,1.0,0.301
157,8679764,150306,2018-08-06,0.269,0.269,1.0,1.0,0.269
158,8651658,150306,2018-08-03,0.304,0.304,1.0,1.0,0.304
159,8642101,150306,2018-08-02,0.334,0.334,1.0,1.0,0.334
160,8627191,150306,2018-08-01,0.36,0.36,1.0,1.0,0.36
161,8609603,150306,2018-07-31,0.38,0.38,1.0,1.0,0.38
162,8594538,150306,2018-07-30,0.376,0.376,1.0,1.0,0.376
163,8568369,150306,2018-07-27,0.408,0.408,1.0,1.0,0.408
164,8563298,150306,2018-07-26,0.421,0.421,1.0,1.0,0.421
165,8547768,150306,2018-07-25,0.437,0.437,1.0,1.0,0.437
166,8533901,150306,2018-07-24,0.425,0.425,1.0,1.0,0.425
167,8524815,150306,2018-07-23,0.411,0.411,1.0,1.0,0.411
168,8494450,150306,2018-07-20,0.429,0.429,1.0,1.0,0.429
169,8483708,150306,2018-07-19,0.415,0.415,1.0,1.0,0.415
170,8473369,150306,2018-07-18,0.431,0.431,1.0,1.0,0.431
171,8457708,150306,2018-07-17,0.438,0.438,1.0,1.0,0.438
172,8446149,150306,2018-07-16,0.446,0.446,1.0,1.0,0.446
173,8408574,150306,2018-07-13,0.442,0.442,1.0,1.0,0.442
174,8402615,150306,2018-07-12,0.428,0.428,1.0,1.0,0.428
175,8382600,150306,2018-07-11,0.388,0.388,1.0,1.0,0.388
176,8368445,150306,2018-07-10,0.41,0.41,1.0,1.0,0.41
177,8352659,150306,2018-07-09,0.405,0.405,1.0,1.0,0.405
178,8320056,150306,2018-07-06,0.367,0.367,1.0,1.0,0.367
179,8313340,150306,2018-07-05,0.363,0.363,1.0,1.0,0.363
180,8293385,150306,2018-07-04,0.387,0.387,1.0,1.0,0.387
181,8257163,150306,2018-07-03,0.415,0.415,1.0,1.0,0.415
182,8254446,150306,2018-07-02,0.413,0.413,1.0,1.0,0.413
183,8220631,150306,2018-06-30,0.432,0.432,1.0,1.0,0.432
184,8237440,150306,2018-06-29,0.432,0.432,1.0,1.0,0.432
185,8208788,150306,2018-06-28,0.384,0.384,1.0,1.0,0.384
186,8190229,150306,2018-06-27,0.398,0.398,1.0,1.0,0.398
187,8089028,150306,2018-06-26,0.426,0.426,1.0,1.0,0.426
188,8075357,150306,2018-06-25,0.422,0.422,1.0,1.0,0.422
189,8034132,150306,2018-06-22,0.431,0.431,1.0,1.0,0.431
190,8027146,150306,2018-06-21,0.409,0.409,1.0,1.0,0.409
191,8008032,150306,2018-06-20,0.435,0.435,1.0,1.0,0.435
192,7979159,150306,2018-06-19,0.419,0.419,1.0,1.0,0.419
193,7923699,150306,2018-06-15,0.488,0.488,1.0,1.0,0.488
194,7909961,150306,2018-06-14,0.514,0.514,1.0,1.0,0.514
195,7895779,150306,2018-06-13,0.526,0.526,1.0,1.0,0.526
196,7876679,150306,2018-06-12,0.554,0.554,1.0,1.0,0.554
197,7855416,150306,2018-06-11,0.53,0.53,1.0,1.0,0.53
198,7855415,150306,2018-06-08,0.558,0.558,1.0,1.0,0.558
199,7807523,150306,2018-06-07,0.575,0.575,1.0,1.0,0.575
200,7774845,150306,2018-06-06,0.589,0.589,1.0,1.0,0.589
201,7766238,150306,2018-06-05,0.585,0.585,1.0,1.0,0.585
202,7747424,150306,2018-06-04,0.557,0.557,1.0,1.0,0.557
203,7705468,150306,2018-06-01,0.563,0.563,1.0,1.0,0.563
204,7692101,150306,2018-05-31,0.599,0.599,1.0,1.0,0.599
205,7676241,150306,2018-05-30,0.558,0.558,1.0,1.0,0.558
206,7654391,150306,2018-05-29,0.586,0.586,1.0,1.0,0.586
207,7636141,150306,2018-05-28,0.618,0.618,1.0,1.0,0.618
208,7590894,150306,2018-05-25,0.606,0.606,1.0,1.0,0.606
209,7578125,150306,2018-05-24,0.606,0.606,1.0,1.0,0.606
210,7578124,150306,2018-05-23,0.602,0.602,1.0,1.0,0.602
211,7556893,150306,2018-05-22,0.613,0.613,1.0,1.0,0.613
212,7536509,150306,2018-05-21,0.595,0.595,1.0,1.0,0.595
213,7518680,150306,2018-05-18,0.589,0.589,1.0,1.0,0.589
214,7493258,150306,2018-05-17,0.581,0.581,1.0,1.0,0.581
215,7466066,150306,2018-05-16,0.595,0.595,1.0,1.0,0.595
216,7447683,150306,2018-05-15,0.585,0.585,1.0,1.0,0.585
217,7428288,150306,2018-05-14,0.564,0.564,1.0,1.0,0.564
218,7389463,150306,2018-05-11,0.562,0.562,1.0,1.0,0.562
219,7377985,150306,2018-05-10,0.586,0.586,1.0,1.0,0.586
220,7357202,150306,2018-05-09,0.564,0.564,1.0,1.0,0.564
221,7337700,150306,2018-05-08,0.564,0.564,1.0,1.0,0.564
222,7323939,150306,2018-05-07,0.556,0.556,1.0,1.0,0.556
223,7279595,150306,2018-05-04,0.529,0.529,1.0,1.0,0.529
224,7265996,150306,2018-05-03,0.521,0.521,1.0,1.0,0.521
225,7246563,150306,2018-05-02,0.517,0.517,1.0,1.0,0.517
226,7183706,150306,2018-04-27,0.512,0.512,1.0,1.0,0.512
227,7170514,150306,2018-04-26,0.498,0.498,1.0,1.0,0.498
228,7161539,150306,2018-04-25,0.528,0.528,1.0,1.0,0.528
229,7146222,150306,2018-04-24,0.514,0.514,1.0,1.0,0.514
230,7130345,150306,2018-04-23,0.482,0.482,1.0,1.0,0.482
231,7085543,150306,2018-04-20,0.492,0.492,1.0,1.0,0.492
232,7074500,150306,2018-04-19,0.513,0.513,1.0,1.0,0.513
233,7042725,150306,2018-04-18,0.507,0.507,1.0,1.0,0.507
234,7042724,150306,2018-04-17,0.497,0.497,1.0,1.0,0.497
235,7025084,150306,2018-04-16,0.535,0.535,1.0,1.0,0.535
236,6980850,150306,2018-04-13,0.539,0.539,1.0,1.0,0.539
237,6970050,150306,2018-04-12,0.551,0.551,1.0,1.0,0.551
238,6949404,150306,2018-04-11,0.552,0.552,1.0,1.0,0.552
239,6929841,150306,2018-04-10,0.552,0.552,1.0,1.0,0.552
240,6911075,150306,2018-04-09,0.54,0.54,1.0,1.0,0.54
241,6836431,150306,2018-04-04,0.54,0.54,1.0,1.0,0.54
242,6836430,150306,2018-04-03,0.547,0.547,1.0,1.0,0.547
243,6814578,150306,2018-04-02,0.561,0.561,1.0,1.0,0.561
244,6767272,150306,2018-03-30,0.561,0.561,1.0,1.0,0.561
245,6756527,150306,2018-03-29,0.537,0.537,1.0,1.0,0.537
246,6739623,150306,2018-03-28,0.539,0.539,1.0,1.0,0.539
247,6718513,150306,2018-03-27,0.559,0.559,1.0,1.0,0.559
248,6686657,150306,2018-03-26,0.532,0.532,1.0,1.0,0.532
249,6686656,150306,2018-03-23,0.506,0.506,1.0,1.0,0.506
250,6646432,150306,2018-03-22,0.558,0.558,1.0,1.0,0.558
251,6624128,150306,2018-03-21,0.568,0.568,1.0,1.0,0.568
252,6592195,150306,2018-03-20,0.582,0.582,1.0,1.0,0.582
253,6578632,150306,2018-03-19,0.574,0.574,1.0,1.0,0.574
254,6560179,150306,2018-03-16,0.553,0.553,1.0,1.0,0.553
255,6540938,150306,2018-03-15,0.561,0.561,1.0,1.0,0.561
256,6534775,150306,2018-03-14,0.561,0.561,1.0,1.0,0.561
257,6473536,150306,2018-03-13,0.573,0.573,1.0,1.0,0.573
258,6426188,150306,2018-03-12,0.591,0.591,1.0,1.0,0.591
259,5145148,150306,2018-03-09,0.576,0.576,1.0,1.0,0.576
260,5136882,150306,2018-03-08,0.55,0.55,1.0,1.0,0.55
261,5136881,150306,2018-03-07,0.534,0.534,1.0,1.0,0.534
262,5127687,150306,2018-03-06,0.546,0.546,1.0,1.0,0.546
263,5090833,150306,2018-03-05,0.524,0.524,1.0,1.0,0.524
264,5090832,150306,2018-03-02,0.515,0.515,1.0,1.0,0.515
265,4938126,150306,2018-03-01,0.525,0.525,1.0,1.0,0.525
266,4938125,150306,2018-02-28,0.509,0.509,1.0,1.0,0.509
267,4938124,150306,2018-02-27,0.513,0.513,1.0,1.0,0.513
268,4938123,150306,2018-02-26,0.513,0.513,1.0,1.0,0.513
269,4938122,150306,2018-02-23,0.485,0.485,1.0,1.0,0.485
270,4938121,150306,2018-02-22,0.491,0.491,1.0,1.0,0.491
271,4938120,150306,2018-02-14,0.464,0.464,1.0,1.0,0.464
272,4938119,150306,2018-02-13,0.461,0.461,1.0,1.0,0.461
273,4938118,150306,2018-02-12,0.451,0.451,1.0,1.0,0.451
274,4938117,150306,2018-02-09,0.417,0.417,1.0,1.0,0.417
275,4938116,150306,2018-02-08,0.465,0.465,1.0,1.0,0.465
276,4938115,150306,2018-02-07,0.455,0.455,1.0,1.0,0.455
277,4938114,150306,2018-02-06,0.459,0.459,1.0,1.0,0.459
278,4938113,150306,2018-02-05,0.518,0.518,1.0,1.0,0.518
279,4938112,150306,2018-02-02,0.528,0.528,1.0,1.0,0.528
280,4938111,150306,2018-02-01,0.526,0.526,1.0,1.0,0.526
281,4938110,150306,2018-01-31,0.554,0.554,1.0,1.0,0.554
282,4938109,150306,2018-01-30,0.57,0.57,1.0,1.0,0.57
283,4938108,150306,2018-01-29,0.578,0.578,1.0,1.0,0.578
284,4938107,150306,2018-01-26,0.611,0.611,1.0,1.0,0.611
285,4938106,150306,2018-01-25,0.609,0.609,1.0,1.0,0.609
286,4938105,150306,2018-01-24,0.615,0.615,1.0,1.0,0.615
287,4938104,150306,2018-01-23,0.595,0.595,1.0,1.0,0.595
288,4938103,150306,2018-01-22,0.595,0.595,1.0,1.0,0.595
289,4938102,150306,2018-01-19,0.572,0.572,1.0,1.0,0.572
290,4938101,150306,2018-01-18,0.576,0.576,1.0,1.0,0.576
291,4938100,150306,2018-01-17,0.58,0.58,1.0,1.0,0.58
292,4938099,150306,2018-01-16,0.576,0.576,1.0,1.0,0.576
293,4938098,150306,2018-01-15,0.564,0.564,1.0,1.0,0.564
294,4938097,150306,2018-01-12,0.581,0.581,1.0,1.0,0.581
295,4938096,150306,2018-01-11,0.581,0.581,1.0,1.0,0.581
296,310725,150306,2018-01-10,0.579,0.579,1.0,1.0,0.579
297,310724,150306,2018-01-09,0.585,0.585,1.0,1.0,0.585
298,310723,150306,2018-01-08,0.573,0.573,1.0,1.0,0.573
299,310722,150306,2018-01-05,0.577,0.577,1.0,1.0,0.577
300,310721,150306,2018-01-04,0.58,0.58,1.0,1.0,0.58
301,310720,150306,2018-01-03,0.578,0.578,1.0,1.0,0.578
302,310719,150306,2018-01-02,0.568,0.568,1.0,1.0,0.568
303,310718,150306,2017-12-31,0.56,0.56,1.0,1.0,0.56
304,310717,150306,2017-12-29,0.56,0.56,1.0,1.0,0.56
305,310716,150306,2017-12-28,0.546,0.546,1.0,1.0,0.546
306,310715,150306,2017-12-27,0.545,0.545,1.0,1.0,0.545
307,310714,150306,2017-12-26,0.563,0.563,1.0,1.0,0.563
308,310713,150306,2017-12-25,0.563,0.563,1.0,1.0,0.563
309,310712,150306,2017-12-22,0.565,0.565,1.0,1.0,0.565
310,310711,150306,2017-12-21,0.569,0.569,1.0,1.0,0.569
311,310710,150306,2017-12-20,0.561,0.561,1.0,1.0,0.561
312,310709,150306,2017-12-19,0.564,0.564,1.0,1.0,0.564
313,310708,150306,2017-12-18,0.55,0.55,1.0,1.0,0.55
314,310707,150306,2017-12-15,0.552,0.552,1.0,1.0,0.552
315,310706,150306,2017-12-14,0.557,0.557,1.0,1.0,0.557
316,310705,150306,2017-12-13,0.561,0.561,1.0,1.0,0.561
317,310704,150306,2017-12-12,0.553,0.553,1.0,1.0,0.553
318,310703,150306,2017-12-11,0.569,0.569,1.0,1.0,0.569
319,310702,150306,2017-12-08,0.548,0.548,1.0,1.0,0.548
320,310701,150306,2017-12-07,0.53,0.53,1.0,1.0,0.53
321,310700,150306,2017-12-06,0.532,0.532,1.0,1.0,0.532
322,310699,150306,2017-12-05,0.526,0.526,1.0,1.0,0.526
323,310698,150306,2017-12-04,0.532,0.532,1.0,1.0,0.532
324,310697,150306,2017-12-01,0.531,0.531,1.0,1.0,0.531
325,310696,150306,2017-11-30,0.517,0.517,1.0,1.0,0.517
326,310695,150306,2017-11-29,0.529,0.529,1.0,1.0,0.529
327,310694,150306,2017-11-28,0.541,0.541,1.0,1.0,0.541
328,310693,150306,2017-11-27,0.533,0.533,1.0,1.0,0.533
329,310692,150306,2017-11-24,0.552,0.552,1.0,1.0,0.552
330,310691,150306,2017-11-23,0.558,0.558,1.0,1.0,0.558
331,310690,150306,2017-11-22,0.6,0.6,1.0,1.0,0.6
332,310689,150306,2017-11-21,0.608,0.608,1.0,1.0,0.608
333,310688,150306,2017-11-20,0.594,0.594,1.0,1.0,0.594
334,310687,150306,2017-11-17,0.592,0.592,1.0,1.0,0.592
335,310686,150306,2017-11-16,0.625,0.625,1.0,1.0,0.625
336,310685,150306,2017-11-15,0.609,0.609,1.0,1.0,0.609
