,id,code,day,net_value,sum_value,factor,acc_factor,refactor_net_value
0,12060834,040047,2019-07-12,0.3546,0.3546,1.0,1.0,0.3546
1,12050861,040047,2019-07-11,0.3527,0.3527,1.0,1.0,0.3527
2,12037384,040047,2019-07-10,0.3529,0.3529,1.0,1.0,0.3529
3,12030176,040047,2019-07-09,0.3497,0.3497,1.0,1.0,0.3497
4,12020353,040047,2019-07-08,0.348,0.348,1.0,1.0,0.348
5,12009042,040047,2019-07-05,0.3504,0.3504,1.0,1.0,0.3504
6,11997216,040047,2019-07-04,0.3511,0.3511,1.0,1.0,0.3511
7,11985875,040047,2019-07-03,0.3511,0.3511,1.0,1.0,0.3511
8,11976734,040047,2019-07-02,0.3485,0.3485,1.0,1.0,0.3485
9,11964870,040047,2019-07-01,0.3472,0.3472,1.0,1.0,0.3472
10,11958736,040047,2019-06-28,0.343,0.343,1.0,1.0,0.343
11,11948972,040047,2019-06-27,0.3424,0.3424,1.0,1.0,0.3424
12,11931498,040047,2019-06-26,0.341,0.341,1.0,1.0,0.341
13,11921207,040047,2019-06-25,0.3396,0.3396,1.0,1.0,0.3396
14,11921206,040047,2019-06-24,0.3452,0.3452,1.0,1.0,0.3452
15,11909812,040047,2019-06-21,0.3455,0.3455,1.0,1.0,0.3455
16,11901627,040047,2019-06-20,0.3459,0.3459,1.0,1.0,0.3459
17,11893246,040047,2019-06-19,0.3429,0.3429,1.0,1.0,0.3429
18,11885412,040047,2019-06-18,0.3414,0.3414,1.0,1.0,0.3414
19,11873948,040047,2019-06-17,0.3367,0.3367,1.0,1.0,0.3367
20,11868519,040047,2019-06-14,0.3348,0.3348,1.0,1.0,0.3348
21,11859164,040047,2019-06-13,0.3361,0.3361,1.0,1.0,0.3361
22,11850954,040047,2019-06-12,0.3344,0.3344,1.0,1.0,0.3344
23,11840091,040047,2019-06-11,0.3361,0.3361,1.0,1.0,0.3361
24,11840090,040047,2019-06-10,0.3357,0.3357,1.0,1.0,0.3357
25,11828679,040047,2019-06-06,0.3261,0.3261,1.0,1.0,0.3261
26,11816333,040047,2019-06-05,0.3236,0.3236,1.0,1.0,0.3236
27,11804848,040047,2019-06-04,0.3213,0.3213,1.0,1.0,0.3213
28,11799467,040047,2019-06-03,0.3132,0.3132,1.0,1.0,0.3132
29,11790777,040047,2019-05-31,0.3196,0.3196,1.0,1.0,0.3196
30,11782028,040047,2019-05-30,0.3247,0.3247,1.0,1.0,0.3247
31,11777731,040047,2019-05-29,0.3234,0.3234,1.0,1.0,0.3234
32,11765560,040047,2019-05-28,0.3261,0.3261,1.0,1.0,0.3261
33,11761442,040047,2019-05-27,0.327,0.327,1.0,1.0,0.327
34,11749154,040047,2019-05-24,0.3271,0.3271,1.0,1.0,0.3271
35,11740414,040047,2019-05-23,0.3274,0.3274,1.0,1.0,0.3274
36,11735943,040047,2019-05-22,0.3322,0.3322,1.0,1.0,0.3322
37,11727830,040047,2019-05-21,0.3335,0.3335,1.0,1.0,0.3335
38,11720089,040047,2019-05-20,0.3303,0.3303,1.0,1.0,0.3303
39,11707168,040047,2019-05-17,0.3358,0.3358,1.0,1.0,0.3358
40,11699134,040047,2019-05-16,0.3389,0.3389,1.0,1.0,0.3389
41,11694766,040047,2019-05-15,0.3356,0.3356,1.0,1.0,0.3356
42,11682985,040047,2019-05-14,0.3309,0.3309,1.0,1.0,0.3309
43,11675194,040047,2019-05-13,0.3276,0.3276,1.0,1.0,0.3276
44,11666626,040047,2019-05-10,0.339,0.339,1.0,1.0,0.339
45,11658114,040047,2019-05-09,0.3386,0.3386,1.0,1.0,0.3386
46,11649001,040047,2019-05-08,0.3401,0.3401,1.0,1.0,0.3401
47,11637032,040047,2019-05-07,0.3411,0.3411,1.0,1.0,0.3411
48,11634426,040047,2019-05-06,0.3475,0.3475,1.0,1.0,0.3475
49,11629065,040047,2019-04-30,0.3469,0.3469,1.0,1.0,0.3469
50,11616772,040047,2019-04-29,0.3493,0.3493,1.0,1.0,0.3493
51,11608172,040047,2019-04-26,0.3488,0.3488,1.0,1.0,0.3488
52,11595723,040047,2019-04-25,0.3484,0.3484,1.0,1.0,0.3484
53,11590786,040047,2019-04-24,0.347,0.347,1.0,1.0,0.347
54,11578381,040047,2019-04-23,0.3482,0.3482,1.0,1.0,0.3482
55,11567734,040047,2019-04-22,0.3441,0.3441,1.0,1.0,0.3441
56,11567733,040047,2019-04-19,0.3431,0.3431,1.0,1.0,0.3431
57,11555519,040047,2019-04-18,0.3431,0.3431,1.0,1.0,0.3431
58,11547047,040047,2019-04-17,0.3427,0.3427,1.0,1.0,0.3427
59,11539443,040047,2019-04-16,0.3416,0.3416,1.0,1.0,0.3416
60,11531715,040047,2019-04-15,0.3405,0.3405,1.0,1.0,0.3405
61,11522405,040047,2019-04-12,0.3405,0.3405,1.0,1.0,0.3405
62,11514724,040047,2019-04-11,0.3388,0.3388,1.0,1.0,0.3388
63,11505197,040047,2019-04-10,0.3394,0.3394,1.0,1.0,0.3394
64,11496725,040047,2019-04-09,0.3376,0.3376,1.0,1.0,0.3376
65,11488605,040047,2019-04-08,0.3388,0.3388,1.0,1.0,0.3388
66,11479732,040047,2019-04-04,0.3364,0.3364,1.0,1.0,0.3364
67,11471455,040047,2019-04-03,0.3365,0.3365,1.0,1.0,0.3365
68,11459489,040047,2019-04-02,0.3346,0.3346,1.0,1.0,0.3346
69,11455045,040047,2019-04-01,0.3337,0.3337,1.0,1.0,0.3337
70,11441908,040047,2019-03-29,0.3295,0.3295,1.0,1.0,0.3295
71,11432913,040047,2019-03-28,0.3272,0.3272,1.0,1.0,0.3272
72,11427679,040047,2019-03-27,0.3268,0.3268,1.0,1.0,0.3268
73,11416087,040047,2019-03-26,0.3285,0.3285,1.0,1.0,0.3285
74,11408588,040047,2019-03-25,0.327,0.327,1.0,1.0,0.327
75,11399792,040047,2019-03-22,0.3274,0.3274,1.0,1.0,0.3274
76,11391178,040047,2019-03-21,0.3345,0.3345,1.0,1.0,0.3345
77,11382749,040047,2019-03-20,0.3298,0.3298,1.0,1.0,0.3298
78,11375136,040047,2019-03-19,0.3285,0.3285,1.0,1.0,0.3285
79,11367541,040047,2019-03-18,0.3275,0.3275,1.0,1.0,0.3275
80,11359091,040047,2019-03-15,0.3266,0.3266,1.0,1.0,0.3266
81,11350653,040047,2019-03-14,0.324,0.324,1.0,1.0,0.324
82,11342011,040047,2019-03-13,0.3245,0.3245,1.0,1.0,0.3245
83,11334368,040047,2019-03-12,0.3222,0.3222,1.0,1.0,0.3222
84,11326891,040047,2019-03-11,0.3207,0.3207,1.0,1.0,0.3207
85,11317199,040047,2019-03-08,0.3143,0.3143,1.0,1.0,0.3143
86,11310230,040047,2019-03-07,0.3149,0.3149,1.0,1.0,0.3149
87,11301982,040047,2019-03-06,0.3184,0.3184,1.0,1.0,0.3184
88,11294287,040047,2019-03-05,0.3203,0.3203,1.0,1.0,0.3203
89,11286796,040047,2019-03-04,0.3201,0.3201,1.0,1.0,0.3201
90,11278411,040047,2019-03-01,0.3202,0.3202,1.0,1.0,0.3202
91,11270061,040047,2019-02-28,0.3179,0.3179,1.0,1.0,0.3179
92,11262577,040047,2019-02-27,0.3187,0.3187,1.0,1.0,0.3187
93,11254777,040047,2019-02-26,0.3189,0.3189,1.0,1.0,0.3189
94,11247637,040047,2019-02-25,0.3186,0.3186,1.0,1.0,0.3186
95,11239140,040047,2019-02-22,0.3176,0.3176,1.0,1.0,0.3176
96,11230945,040047,2019-02-21,0.3152,0.3152,1.0,1.0,0.3152
97,11223149,040047,2019-02-20,0.3165,0.3165,1.0,1.0,0.3165
98,11215916,040047,2019-02-19,0.3165,0.3165,1.0,1.0,0.3165
99,11209298,040047,2019-02-18,0.316,0.316,1.0,1.0,0.316
100,11200609,040047,2019-02-15,0.316,0.316,1.0,1.0,0.316
101,11193003,040047,2019-02-14,0.3146,0.3146,1.0,1.0,0.3146
102,11184275,040047,2019-02-13,0.3143,0.3143,1.0,1.0,0.3143
103,11177226,040047,2019-02-12,0.3143,0.3143,1.0,1.0,0.3143
104,11170483,040047,2019-02-11,0.3098,0.3098,1.0,1.0,0.3098
105,11161365,040047,2019-02-01,0.3084,0.3084,1.0,1.0,0.3084
106,11150869,040047,2019-01-31,0.3097,0.3097,1.0,1.0,0.3097
107,11143131,040047,2019-01-30,0.3055,0.3055,1.0,1.0,0.3055
108,11131887,040047,2019-01-29,0.2981,0.2981,1.0,1.0,0.2981
109,11123865,040047,2019-01-28,0.3007,0.3007,1.0,1.0,0.3007
110,11116018,040047,2019-01-25,0.3045,0.3045,1.0,1.0,0.3045
111,11106514,040047,2019-01-24,0.301,0.301,1.0,1.0,0.301
112,11098681,040047,2019-01-23,0.2991,0.2991,1.0,1.0,0.2991
113,11092221,040047,2019-01-22,0.2986,0.2986,1.0,1.0,0.2986
114,11084825,040047,2019-01-21,0.3045,0.3045,1.0,1.0,0.3045
115,11076828,040047,2019-01-18,0.3046,0.3046,1.0,1.0,0.3046
116,11067971,040047,2019-01-17,0.3018,0.3018,1.0,1.0,0.3018
117,11061191,040047,2019-01-16,0.2996,0.2996,1.0,1.0,0.2996
118,11053348,040047,2019-01-15,0.2997,0.2997,1.0,1.0,0.2997
119,11045829,040047,2019-01-14,0.2943,0.2943,1.0,1.0,0.2943
120,11037385,040047,2019-01-11,0.2969,0.2969,1.0,1.0,0.2969
121,11028880,040047,2019-01-10,0.2977,0.2977,1.0,1.0,0.2977
122,11019251,040047,2019-01-09,0.2968,0.2968,1.0,1.0,0.2968
123,11012073,040047,2019-01-08,0.2947,0.2947,1.0,1.0,0.2947
124,11003818,040047,2019-01-07,0.292,0.292,1.0,1.0,0.292
125,10994986,040047,2019-01-04,0.2893,0.2893,1.0,1.0,0.2893
126,10985789,040047,2019-01-03,0.2774,0.2774,1.0,1.0,0.2774
127,10976998,040047,2019-01-02,0.2865,0.2865,1.0,1.0,0.2865
128,10967696,040047,2018-12-31,0.2851,0.2851,1.0,1.0,0.2851
129,10967695,040047,2018-12-28,0.2832,0.2832,1.0,1.0,0.2832
130,10957571,040047,2018-12-27,0.2835,0.2835,1.0,1.0,0.2835
131,10941702,040047,2018-12-26,0.2822,0.2822,1.0,1.0,0.2822
132,10933976,040047,2018-12-25,0.2665,0.2665,1.0,1.0,0.2665
133,10926454,040047,2018-12-24,0.2666,0.2666,1.0,1.0,0.2666
134,10916355,040047,2018-12-21,0.273,0.273,1.0,1.0,0.273
135,10910360,040047,2018-12-20,0.2816,0.2816,1.0,1.0,0.2816
136,10905688,040047,2018-12-19,0.2859,0.2859,1.0,1.0,0.2859
137,10894732,040047,2018-12-18,0.2922,0.2922,1.0,1.0,0.2922
138,10890842,040047,2018-12-17,0.2904,0.2904,1.0,1.0,0.2904
139,10877922,040047,2018-12-14,0.2967,0.2967,1.0,1.0,0.2967
140,10870796,040047,2018-12-13,0.3041,0.3041,1.0,1.0,0.3041
141,10862526,040047,2018-12-12,0.3039,0.3039,1.0,1.0,0.3039
142,10855695,040047,2018-12-11,0.3013,0.3013,1.0,1.0,0.3013
143,10848583,040047,2018-12-10,0.3005,0.3005,1.0,1.0,0.3005
144,10839427,040047,2018-12-07,0.2975,0.2975,1.0,1.0,0.2975
145,10831547,040047,2018-12-06,0.3071,0.3071,1.0,1.0,0.3071
146,10824561,040047,2018-12-05,0.3052,0.3052,1.0,1.0,0.3052
147,10816423,040047,2018-12-04,0.3052,0.3052,1.0,1.0,0.3052
148,10809147,040047,2018-12-03,0.3166,0.3166,1.0,1.0,0.3166
149,10801107,040047,2018-11-30,0.3117,0.3117,1.0,1.0,0.3117
150,10793064,040047,2018-11-29,0.3093,0.3093,1.0,1.0,0.3093
151,10784829,040047,2018-11-28,0.3102,0.3102,1.0,1.0,0.3102
152,10777535,040047,2018-11-27,0.301,0.301,1.0,1.0,0.301
153,10770658,040047,2018-11-26,0.3001,0.3001,1.0,1.0,0.3001
154,10762130,040047,2018-11-23,0.2936,0.2936,1.0,1.0,0.2936
155,10754162,040047,2018-11-22,0.2957,0.2957,1.0,1.0,0.2957
156,10746944,040047,2018-11-21,0.2958,0.2958,1.0,1.0,0.2958
157,10739473,040047,2018-11-20,0.2937,0.2937,1.0,1.0,0.2937
158,10732209,040047,2018-11-19,0.2986,0.2986,1.0,1.0,0.2986
159,10724529,040047,2018-11-16,0.3082,0.3082,1.0,1.0,0.3082
160,10715637,040047,2018-11-15,0.3091,0.3091,1.0,1.0,0.3091
161,10708778,040047,2018-11-14,0.3039,0.3039,1.0,1.0,0.3039
162,10701194,040047,2018-11-13,0.3065,0.3065,1.0,1.0,0.3065
163,10694099,040047,2018-11-12,0.3064,0.3064,1.0,1.0,0.3064
164,10685813,040047,2018-11-09,0.3155,0.3155,1.0,1.0,0.3155
165,10677656,040047,2018-11-08,0.3205,0.3205,1.0,1.0,0.3205
166,10669862,040047,2018-11-07,0.3223,0.3223,1.0,1.0,0.3223
167,10665601,040047,2018-11-06,0.3131,0.3131,1.0,1.0,0.3131
168,10654901,040047,2018-11-05,0.3108,0.3108,1.0,1.0,0.3108
169,10646505,040047,2018-11-02,0.3121,0.3121,1.0,1.0,0.3121
170,10637434,040047,2018-11-01,0.3168,0.3168,1.0,1.0,0.3168
171,10629290,040047,2018-10-31,0.3123,0.3123,1.0,1.0,0.3123
172,10625482,040047,2018-10-30,0.3054,0.3054,1.0,1.0,0.3054
173,10618063,040047,2018-10-29,0.3013,0.3013,1.0,1.0,0.3013
174,10605744,040047,2018-10-26,0.3073,0.3073,1.0,1.0,0.3073
175,10597025,040047,2018-10-25,0.3144,0.3144,1.0,1.0,0.3144
176,10589342,040047,2018-10-24,0.3048,0.3048,1.0,1.0,0.3048
177,10582345,040047,2018-10-23,0.3186,0.3186,1.0,1.0,0.3186
178,10578611,040047,2018-10-22,0.3195,0.3195,1.0,1.0,0.3195
179,10567832,040047,2018-10-19,0.3182,0.3182,1.0,1.0,0.3182
180,10559422,040047,2018-10-18,0.3184,0.3184,1.0,1.0,0.3184
181,10552209,040047,2018-10-17,0.3252,0.3252,1.0,1.0,0.3252
182,10544978,040047,2018-10-16,0.3251,0.3251,1.0,1.0,0.3251
183,10523620,040047,2018-10-15,0.3165,0.3165,1.0,1.0,0.3165
184,10430069,040047,2018-10-12,0.3203,0.3203,1.0,1.0,0.3203
185,10290471,040047,2018-10-11,0.3119,0.3119,1.0,1.0,0.3119
186,9887151,040047,2018-10-10,0.3152,0.3152,1.0,1.0,0.3152
187,9750507,040047,2018-10-09,0.3288,0.3288,1.0,1.0,0.3288
188,9665402,040047,2018-10-08,0.3279,0.3279,1.0,1.0,0.3279
189,10336215,040047,2018-09-30,0.3393,0.3393,1.0,1.0,0.3393
190,9434467,040047,2018-09-27,0.3393,0.3393,1.0,1.0,0.3393
191,9307792,040047,2018-09-26,0.3366,0.3366,1.0,1.0,0.3366
192,9297916,040047,2018-09-25,0.3366,0.3366,1.0,1.0,0.3366
193,9280967,040047,2018-09-21,0.3353,0.3353,1.0,1.0,0.3353
194,9263590,040047,2018-09-20,0.3369,0.3369,1.0,1.0,0.3369
195,9238194,040047,2018-09-19,0.3337,0.3337,1.0,1.0,0.3337
196,9231066,040047,2018-09-18,0.3338,0.3338,1.0,1.0,0.3338
197,9214324,040047,2018-09-17,0.3313,0.3313,1.0,1.0,0.3313
198,9193555,040047,2018-09-14,0.336,0.336,1.0,1.0,0.336
199,9173943,040047,2018-09-13,0.3367,0.3367,1.0,1.0,0.3367
200,9148145,040047,2018-09-12,0.3336,0.3336,1.0,1.0,0.3336
201,9140506,040047,2018-09-11,0.3345,0.3345,1.0,1.0,0.3345
202,9120201,040047,2018-09-10,0.3321,0.3321,1.0,1.0,0.3321
203,9105312,040047,2018-09-07,0.3315,0.3315,1.0,1.0,0.3315
204,9086849,040047,2018-09-06,0.3323,0.3323,1.0,1.0,0.3323
205,9062679,040047,2018-09-05,0.3352,0.3352,1.0,1.0,0.3352
206,9062678,040047,2018-09-04,0.3392,0.3392,1.0,1.0,0.3392
207,9041748,040047,2018-09-03,0.3405,0.3405,1.0,1.0,0.3405
208,9012810,040047,2018-08-31,0.3405,0.3405,1.0,1.0,0.3405
209,9012809,040047,2018-08-30,0.3402,0.3402,1.0,1.0,0.3402
210,8981443,040047,2018-08-29,0.3408,0.3408,1.0,1.0,0.3408
211,8972785,040047,2018-08-28,0.3371,0.3371,1.0,1.0,0.3371
212,8947248,040047,2018-08-27,0.3366,0.3366,1.0,1.0,0.3366
213,8942984,040047,2018-08-24,0.3336,0.3336,1.0,1.0,0.3336
214,8924678,040047,2018-08-23,0.3306,0.3306,1.0,1.0,0.3306
215,8896548,040047,2018-08-22,0.3312,0.3312,1.0,1.0,0.3312
216,8888481,040047,2018-08-21,0.3299,0.3299,1.0,1.0,0.3299
217,8861580,040047,2018-08-20,0.3287,0.3287,1.0,1.0,0.3287
218,8861579,040047,2018-08-17,0.3289,0.3289,1.0,1.0,0.3289
219,8839572,040047,2018-08-16,0.3288,0.3288,1.0,1.0,0.3288
220,8808001,040047,2018-08-15,0.3281,0.3281,1.0,1.0,0.3281
221,8789927,040047,2018-08-14,0.3318,0.3318,1.0,1.0,0.3318
222,8785042,040047,2018-08-13,0.33,0.33,1.0,1.0,0.33
223,8775932,040047,2018-08-10,0.3304,0.3304,1.0,1.0,0.3304
224,8753983,040047,2018-08-09,0.3326,0.3326,1.0,1.0,0.3326
225,8732020,040047,2018-08-08,0.3326,0.3326,1.0,1.0,0.3326
226,8710200,040047,2018-08-07,0.332,0.332,1.0,1.0,0.332
227,8705625,040047,2018-08-06,0.3312,0.3312,1.0,1.0,0.3312
228,8691881,040047,2018-08-03,0.3295,0.3295,1.0,1.0,0.3295
229,8679434,040047,2018-08-02,0.3291,0.3291,1.0,1.0,0.3291
230,8647576,040047,2018-08-01,0.3254,0.3254,1.0,1.0,0.3254
231,8641805,040047,2018-07-31,0.3235,0.3235,1.0,1.0,0.3235
232,8626714,040047,2018-07-30,0.3223,0.3223,1.0,1.0,0.3223
233,8609186,040047,2018-07-27,0.3262,0.3262,1.0,1.0,0.3262
234,8587569,040047,2018-07-26,0.3302,0.3302,1.0,1.0,0.3302
235,8566201,040047,2018-07-25,0.3342,0.3342,1.0,1.0,0.3342
236,8547387,040047,2018-07-24,0.3305,0.3305,1.0,1.0,0.3305
237,8541790,040047,2018-07-23,0.3292,0.3292,1.0,1.0,0.3292
238,8533464,040047,2018-07-20,0.3282,0.3282,1.0,1.0,0.3282
239,8511637,040047,2018-07-19,0.3285,0.3285,1.0,1.0,0.3285
240,8494026,040047,2018-07-18,0.3301,0.3301,1.0,1.0,0.3301
241,8483228,040047,2018-07-17,0.3309,0.3309,1.0,1.0,0.3309
242,8473077,040047,2018-07-16,0.3292,0.3292,1.0,1.0,0.3292
243,8457427,040047,2018-07-13,0.33,0.33,1.0,1.0,0.33
244,8435066,040047,2018-07-12,0.3297,0.3297,1.0,1.0,0.3297
245,8408377,040047,2018-07-11,0.3255,0.3255,1.0,1.0,0.3255
246,8386832,040047,2018-07-10,0.327,0.327,1.0,1.0,0.327
247,8382242,040047,2018-07-09,0.3267,0.3267,1.0,1.0,0.3267
248,8352174,040047,2018-07-06,0.3241,0.3241,1.0,1.0,0.3241
249,8335863,040047,2018-07-05,0.32,0.32,1.0,1.0,0.32
250,8312968,040047,2018-07-04,0.3167,0.3167,1.0,1.0,0.3167
251,8292989,040047,2018-07-03,0.3167,0.3167,1.0,1.0,0.3167
252,8256797,040047,2018-07-02,0.3201,0.3201,1.0,1.0,0.3201
253,8254079,040047,2018-06-29,0.3178,0.3178,1.0,1.0,0.3178
254,8237351,040047,2018-06-28,0.3178,0.3178,1.0,1.0,0.3178
255,8212616,040047,2018-06-27,0.3155,0.3155,1.0,1.0,0.3155
256,8204867,040047,2018-06-26,0.3194,0.3194,1.0,1.0,0.3194
257,8189867,040047,2018-06-25,0.3184,0.3184,1.0,1.0,0.3184
258,8088907,040047,2018-06-22,0.3247,0.3247,1.0,1.0,0.3247
259,8060980,040047,2018-06-21,0.3255,0.3255,1.0,1.0,0.3255
260,8033925,040047,2018-06-20,0.3281,0.3281,1.0,1.0,0.3281
261,8026949,040047,2018-06-19,0.3258,0.3258,1.0,1.0,0.3258
262,8007637,040047,2018-06-15,0.3269,0.3269,1.0,1.0,0.3269
263,7964718,040047,2018-06-14,0.3279,0.3279,1.0,1.0,0.3279
264,7923451,040047,2018-06-13,0.3247,0.3247,1.0,1.0,0.3247
265,7909859,040047,2018-06-12,0.3247,0.3247,1.0,1.0,0.3247
266,7876333,040047,2018-06-11,0.3231,0.3231,1.0,1.0,0.3231
267,7854659,040047,2018-06-08,0.3225,0.3225,1.0,1.0,0.3225
268,7834642,040047,2018-06-07,0.3224,0.3224,1.0,1.0,0.3224
269,7807145,040047,2018-06-06,0.3246,0.3246,1.0,1.0,0.3246
270,7802919,040047,2018-06-05,0.3228,0.3228,1.0,1.0,0.3228
271,7774374,040047,2018-06-04,0.3218,0.3218,1.0,1.0,0.3218
272,7765843,040047,2018-06-01,0.319,0.319,1.0,1.0,0.319
273,7733552,040047,2018-05-31,0.3135,0.3135,1.0,1.0,0.3135
274,7705025,040047,2018-05-30,0.3138,0.3138,1.0,1.0,0.3138
275,7691836,040047,2018-05-29,0.3116,0.3116,1.0,1.0,0.3116
276,7659200,040047,2018-05-28,0.3132,0.3132,1.0,1.0,0.3132
277,7639498,040047,2018-05-25,0.3132,0.3132,1.0,1.0,0.3132
278,7621189,040047,2018-05-24,0.3126,0.3126,1.0,1.0,0.3126
279,7590481,040047,2018-05-23,0.3128,0.3128,1.0,1.0,0.3128
280,7577396,040047,2018-05-22,0.3102,0.3102,1.0,1.0,0.3102
281,7556466,040047,2018-05-21,0.3107,0.3107,1.0,1.0,0.3107
282,7536131,040047,2018-05-18,0.309,0.309,1.0,1.0,0.309
283,7518297,040047,2018-05-17,0.3106,0.3106,1.0,1.0,0.3106
284,7493063,040047,2018-05-16,0.3117,0.3117,1.0,1.0,0.3117
285,7465594,040047,2018-05-15,0.3098,0.3098,1.0,1.0,0.3098
286,7465593,040047,2018-05-14,0.3132,0.3132,1.0,1.0,0.3132
287,7447350,040047,2018-05-11,0.3128,0.3128,1.0,1.0,0.3128
288,7416377,040047,2018-05-10,0.3132,0.3132,1.0,1.0,0.3132
289,7380962,040047,2018-05-09,0.3102,0.3102,1.0,1.0,0.3102
290,7361583,040047,2018-05-08,0.3069,0.3069,1.0,1.0,0.3069
291,7342703,040047,2018-05-07,0.3072,0.3072,1.0,1.0,0.3072
292,7337515,040047,2018-05-04,0.3048,0.3048,1.0,1.0,0.3048
293,7307490,040047,2018-05-03,0.2994,0.2994,1.0,1.0,0.2994
294,7279250,040047,2018-05-02,0.2995,0.2995,1.0,1.0,0.2995
295,7251896,040047,2018-04-27,0.3,0.3,1.0,1.0,0.3
296,7233882,040047,2018-04-26,0.2998,0.2998,1.0,1.0,0.2998
297,7179666,040047,2018-04-25,0.294,0.294,1.0,1.0,0.294
298,7170201,040047,2018-04-24,0.2939,0.2939,1.0,1.0,0.2939
299,7158235,040047,2018-04-23,0.3,0.3,1.0,1.0,0.3
300,7145833,040047,2018-04-20,0.3008,0.3008,1.0,1.0,0.3008
301,7114600,040047,2018-04-19,0.3054,0.3054,1.0,1.0,0.3054
302,7085202,040047,2018-04-18,0.3076,0.3076,1.0,1.0,0.3076
303,7074223,040047,2018-04-17,0.307,0.307,1.0,1.0,0.307
304,7042112,040047,2018-04-16,0.301,0.301,1.0,1.0,0.301
305,7024811,040047,2018-04-13,0.2992,0.2992,1.0,1.0,0.2992
306,7007011,040047,2018-04-12,0.3002,0.3002,1.0,1.0,0.3002
307,6969667,040047,2018-04-11,0.2972,0.2972,1.0,1.0,0.2972
308,6965761,040047,2018-04-10,0.2986,0.2986,1.0,1.0,0.2986
309,6949104,040047,2018-04-09,0.2925,0.2925,1.0,1.0,0.2925
310,6929457,040047,2018-04-04,0.2961,0.2961,1.0,1.0,0.2961
311,6897866,040047,2018-04-03,0.2917,0.2917,1.0,1.0,0.2917
312,6835898,040047,2018-04-02,0.2889,0.2889,1.0,1.0,0.2889
313,6818324,040047,2018-03-30,0.2969,0.2969,1.0,1.0,0.2969
314,6797596,040047,2018-03-29,0.2969,0.2969,1.0,1.0,0.2969
315,6766892,040047,2018-03-28,0.2918,0.2918,1.0,1.0,0.2918
316,6756144,040047,2018-03-27,0.2948,0.2948,1.0,1.0,0.2948
317,6735485,040047,2018-03-26,0.3045,0.3045,1.0,1.0,0.3045
318,6702374,040047,2018-03-23,0.2941,0.2941,1.0,1.0,0.2941
319,6686468,040047,2018-03-22,0.3013,0.3013,1.0,1.0,0.3013
320,6655251,040047,2018-03-21,0.3084,0.3084,1.0,1.0,0.3084
321,6628049,040047,2018-03-20,0.3097,0.3097,1.0,1.0,0.3097
322,6623828,040047,2018-03-19,0.3089,0.3089,1.0,1.0,0.3089
323,6591954,040047,2018-03-16,0.3154,0.3154,1.0,1.0,0.3154
324,6575711,040047,2018-03-15,0.316,0.316,1.0,1.0,0.316
325,6550660,040047,2018-03-14,0.3164,0.3164,1.0,1.0,0.3164
326,6540528,040047,2018-03-13,0.3167,0.3167,1.0,1.0,0.3167
327,6511069,040047,2018-03-12,0.3202,0.3202,1.0,1.0,0.3202
328,6470969,040047,2018-03-09,0.319,0.319,1.0,1.0,0.319
329,6422018,040047,2018-03-08,0.3134,0.3134,1.0,1.0,0.3134
330,5144830,040047,2018-03-07,0.3119,0.3119,1.0,1.0,0.3119
331,5136175,040047,2018-03-06,0.3113,0.3113,1.0,1.0,0.3113
332,5127241,040047,2018-03-05,0.3101,0.3101,1.0,1.0,0.3101
333,5127240,040047,2018-03-02,0.3073,0.3073,1.0,1.0,0.3073
334,5084759,040047,2018-03-01,0.3048,0.3048,1.0,1.0,0.3048
335,4918347,040047,2018-02-28,0.3092,0.3092,1.0,1.0,0.3092
336,4918346,040047,2018-02-27,0.3112,0.3112,1.0,1.0,0.3112
337,4918345,040047,2018-02-26,0.3149,0.3149,1.0,1.0,0.3149
