,id,code,day,net_value,sum_value,factor,acc_factor,refactor_net_value
0,11560610,160139,2019-04-22,1.1267,1.1267,1.0,1.0,1.1267
1,11551929,160139,2019-04-19,1.131,1.131,1.0,1.0,1.131
2,11543734,160139,2019-04-18,1.1261,1.1261,1.0,1.0,1.1261
3,11536097,160139,2019-04-17,1.1391,1.1391,1.0,1.0,1.1391
4,11528501,160139,2019-04-16,1.1331,1.1331,1.0,1.0,1.1331
5,11522679,160139,2019-04-15,1.1169,1.1169,1.0,1.0,1.1169
6,11510085,160139,2019-04-12,1.1183,1.1183,1.0,1.0,1.1183
7,11502185,160139,2019-04-11,1.1161,1.1161,1.0,1.0,1.1161
8,11493201,160139,2019-04-10,1.1307,1.1307,1.0,1.0,1.1307
9,11484232,160139,2019-04-09,1.1339,1.1339,1.0,1.0,1.1339
10,11476484,160139,2019-04-08,1.1347,1.1347,1.0,1.0,1.1347
11,11464782,160139,2019-04-04,1.1263,1.1263,1.0,1.0,1.1263
12,11455568,160139,2019-04-03,1.1276,1.1276,1.0,1.0,1.1276
13,11447541,160139,2019-04-02,1.114,1.114,1.0,1.0,1.114
14,11438463,160139,2019-04-01,1.1144,1.1144,1.0,1.0,1.1144
15,11428183,160139,2019-03-29,1.0998,1.0998,1.0,1.0,1.0998
16,11420481,160139,2019-03-28,1.0895,1.0895,1.0,1.0,1.0895
17,11413016,160139,2019-03-27,1.0902,1.0902,1.0,1.0,1.0902
18,11405012,160139,2019-03-26,1.0821,1.0821,1.0,1.0,1.0821
19,11396430,160139,2019-03-25,1.0841,1.0841,1.0,1.0,1.0841
20,11387469,160139,2019-03-22,1.1092,1.1092,1.0,1.0,1.1092
21,11379579,160139,2019-03-21,1.1118,1.1118,1.0,1.0,1.1118
22,11371838,160139,2019-03-20,1.1197,1.1197,1.0,1.0,1.1197
23,11364313,160139,2019-03-19,1.1243,1.1243,1.0,1.0,1.1243
24,11355846,160139,2019-03-18,1.1236,1.1236,1.0,1.0,1.1236
25,11346841,160139,2019-03-15,1.1092,1.1092,1.0,1.0,1.1092
26,11339131,160139,2019-03-14,1.1,1.1,1.0,1.0,1.1
27,11331015,160139,2019-03-13,1.0969,1.0969,1.0,1.0,1.0969
28,11324172,160139,2019-03-12,1.0988,1.0988,1.0,1.0,1.0988
29,11317704,160139,2019-03-11,1.0914,1.0914,1.0,1.0,1.0914
30,11306650,160139,2019-03-08,1.0874,1.0874,1.0,1.0,1.0874
31,11298707,160139,2019-03-07,1.1,1.1,1.0,1.0,1.1
32,11290904,160139,2019-03-06,1.1061,1.1061,1.0,1.0,1.1061
33,11283717,160139,2019-03-05,1.1053,1.1053,1.0,1.0,1.1053
34,11275218,160139,2019-03-04,1.1048,1.1048,1.0,1.0,1.1048
35,11266846,160139,2019-03-01,1.0973,1.0973,1.0,1.0,1.0973
36,11258901,160139,2019-02-28,1.0823,1.0823,1.0,1.0,1.0823
37,11251639,160139,2019-02-27,1.09,1.09,1.0,1.0,1.09
38,11244257,160139,2019-02-26,1.0986,1.0986,1.0,1.0,1.0986
39,11236039,160139,2019-02-25,1.113,1.113,1.0,1.0,1.113
40,11227718,160139,2019-02-22,1.0878,1.0878,1.0,1.0,1.0878
41,11220083,160139,2019-02-21,1.0757,1.0757,1.0,1.0,1.0757
42,11213239,160139,2019-02-20,1.0751,1.0751,1.0,1.0,1.0751
43,11205670,160139,2019-02-19,1.0672,1.0672,1.0,1.0,1.0672
44,11197982,160139,2019-02-18,1.0696,1.0696,1.0,1.0,1.0696
45,11188876,160139,2019-02-15,1.0487,1.0487,1.0,1.0,1.0487
46,11181273,160139,2019-02-14,1.0727,1.0727,1.0,1.0,1.0727
47,11174449,160139,2019-02-13,1.0735,1.0735,1.0,1.0,1.0735
48,11166670,160139,2019-02-12,1.0607,1.0607,1.0,1.0,1.0607
49,11158026,160139,2019-02-11,1.0554,1.0554,1.0,1.0,1.0554
50,11143634,160139,2019-02-01,1.0534,1.0534,1.0,1.0,1.0534
51,11136295,160139,2019-01-31,1.0505,1.0505,1.0,1.0,1.0505
52,11128256,160139,2019-01-30,1.0419,1.0419,1.0,1.0,1.0419
53,11121174,160139,2019-01-29,1.0409,1.0409,1.0,1.0,1.0409
54,11112380,160139,2019-01-28,1.0433,1.0433,1.0,1.0,1.0433
55,11103788,160139,2019-01-25,1.0481,1.0481,1.0,1.0,1.0481
56,11096150,160139,2019-01-24,1.0298,1.0298,1.0,1.0,1.0298
57,11088802,160139,2019-01-23,1.0254,1.0254,1.0,1.0,1.0254
58,11081519,160139,2019-01-22,1.0236,1.0236,1.0,1.0,1.0236
59,11073015,160139,2019-01-21,1.0328,1.0328,1.0,1.0,1.0328
60,11065329,160139,2019-01-18,1.0246,1.0246,1.0,1.0,1.0246
61,11057361,160139,2019-01-17,1.0119,1.0119,1.0,1.0,1.0119
62,11049987,160139,2019-01-16,1.0163,1.0163,1.0,1.0,1.0163
63,11042730,160139,2019-01-15,1.0103,1.0103,1.0,1.0,1.0103
64,11034462,160139,2019-01-14,0.9918,0.9918,1.0,1.0,0.9918
65,11023859,160139,2019-01-11,1.0123,1.0123,1.0,1.0,1.0123
66,11015783,160139,2019-01-10,1.0088,1.0088,1.0,1.0,1.0088
67,11008293,160139,2019-01-09,1.0102,1.0102,1.0,1.0,1.0102
68,11000628,160139,2019-01-08,0.9883,0.9883,1.0,1.0,0.9883
69,10991947,160139,2019-01-07,0.9899,0.9899,1.0,1.0,0.9899
70,10981704,160139,2019-01-04,0.9833,0.9833,1.0,1.0,0.9833
71,10972011,160139,2019-01-03,0.9657,0.9657,1.0,1.0,0.9657
72,10967912,160139,2019-01-02,0.9631,0.9631,1.0,1.0,0.9631
73,10955047,160139,2018-12-31,0.9896,0.9896,1.0,1.0,0.9896
74,10946659,160139,2018-12-28,0.9785,0.9785,1.0,1.0,0.9785
75,10938431,160139,2018-12-27,0.9823,0.9823,1.0,1.0,0.9823
76,10930791,160139,2018-12-26,0.9888,0.9888,1.0,1.0,0.9888
77,10923495,160139,2018-12-25,0.9908,0.9908,1.0,1.0,0.9908
78,10916820,160139,2018-12-24,0.9921,0.9921,1.0,1.0,0.9921
79,10906187,160139,2018-12-21,0.994,0.994,1.0,1.0,0.994
80,10898976,160139,2018-12-20,0.9965,0.9965,1.0,1.0,0.9965
81,10891358,160139,2018-12-19,1.0054,1.0054,1.0,1.0,1.0054
82,10883238,160139,2018-12-18,1.0101,1.0101,1.0,1.0,1.0101
83,10875490,160139,2018-12-17,1.0226,1.0226,1.0,1.0,1.0226
84,10867167,160139,2018-12-14,1.0225,1.0225,1.0,1.0,1.0225
85,10860196,160139,2018-12-13,1.0394,1.0394,1.0,1.0,1.0394
86,10852900,160139,2018-12-12,1.0293,1.0293,1.0,1.0,1.0293
87,10843624,160139,2018-12-11,1.0143,1.0143,1.0,1.0,1.0143
88,10836473,160139,2018-12-10,1.0127,1.0127,1.0,1.0,1.0127
89,10829115,160139,2018-12-07,1.0219,1.0219,1.0,1.0,1.0219
90,10821074,160139,2018-12-06,1.0301,1.0301,1.0,1.0,1.0301
91,10813361,160139,2018-12-05,1.0549,1.0549,1.0,1.0,1.0549
92,10806235,160139,2018-12-04,1.0744,1.0744,1.0,1.0,1.0744
93,10798606,160139,2018-12-03,1.0781,1.0781,1.0,1.0,1.0781
94,10789624,160139,2018-11-30,1.0533,1.0533,1.0,1.0,1.0533
95,10781852,160139,2018-11-29,1.049,1.049,1.0,1.0,1.049
96,10775240,160139,2018-11-28,1.0557,1.0557,1.0,1.0,1.0557
97,10767238,160139,2018-11-27,1.045,1.045,1.0,1.0,1.045
98,10759211,160139,2018-11-26,1.0452,1.0452,1.0,1.0,1.0452
99,10751179,160139,2018-11-23,1.0322,1.0322,1.0,1.0,1.0322
100,10743440,160139,2018-11-22,1.0386,1.0386,1.0,1.0,1.0386
101,10736733,160139,2018-11-21,1.0441,1.0441,1.0,1.0,1.0441
102,10730157,160139,2018-11-20,1.0406,1.0406,1.0,1.0,1.0406
103,10721207,160139,2018-11-19,1.0562,1.0562,1.0,1.0,1.0562
104,10713181,160139,2018-11-16,1.0528,1.0528,1.0,1.0,1.0528
105,10706310,160139,2018-11-15,1.0502,1.0502,1.0,1.0,1.0502
106,10698199,160139,2018-11-14,1.0354,1.0354,1.0,1.0,1.0354
107,10691132,160139,2018-11-13,1.045,1.045,1.0,1.0,1.045
108,10682805,160139,2018-11-12,1.0403,1.0403,1.0,1.0,1.0403
109,10674396,160139,2018-11-09,1.0373,1.0373,1.0,1.0,1.0373
110,10666121,160139,2018-11-08,1.0612,1.0612,1.0,1.0,1.0612
111,10660219,160139,2018-11-07,1.0539,1.0539,1.0,1.0,1.0539
112,10652503,160139,2018-11-06,1.0539,1.0539,1.0,1.0,1.0539
113,10643202,160139,2018-11-05,1.0462,1.0462,1.0,1.0,1.0462
114,10633953,160139,2018-11-02,1.0632,1.0632,1.0,1.0,1.0632
115,10626034,160139,2018-11-01,1.0282,1.0282,1.0,1.0,1.0282
116,10618609,160139,2018-10-31,1.0149,1.0149,1.0,1.0,1.0149
117,10611238,160139,2018-10-30,1.0013,1.0013,1.0,1.0,1.0013
118,10602531,160139,2018-10-29,0.9988,0.9988,1.0,1.0,0.9988
119,10593898,160139,2018-10-26,1.0084,1.0084,1.0,1.0,1.0084
120,10587229,160139,2018-10-25,1.0183,1.0183,1.0,1.0,1.0183
121,10579136,160139,2018-10-24,1.0216,1.0216,1.0,1.0,1.0216
122,10573135,160139,2018-10-23,1.0207,1.0207,1.0,1.0,1.0207
123,10564398,160139,2018-10-22,1.0457,1.0457,1.0,1.0,1.0457
124,10556600,160139,2018-10-19,1.0222,1.0222,1.0,1.0,1.0222
125,10549114,160139,2018-10-18,1.0099,1.0099,1.0,1.0,1.0099
126,10542173,160139,2018-10-17,1.0157,1.0157,1.0,1.0,1.0157
127,10526828,160139,2018-10-16,1.0156,1.0156,1.0,1.0,1.0156
128,10433322,160139,2018-10-15,1.0109,1.0109,1.0,1.0,1.0109
129,9989680,160139,2018-10-12,1.0255,1.0255,1.0,1.0,1.0255
130,9842938,160139,2018-10-11,1.0054,1.0054,1.0,1.0,1.0054
131,9711196,160139,2018-10-10,1.0389,1.0389,1.0,1.0,1.0389
132,9579333,160139,2018-10-09,1.037,1.037,1.0,1.0,1.037
133,9533651,160139,2018-10-08,1.0325,1.0325,1.0,1.0,1.0325
134,9308251,160139,2018-09-28,1.0905,1.0905,1.0,1.0,1.0905
135,9301930,160139,2018-09-27,1.0814,1.0814,1.0,1.0,1.0814
136,9281477,160139,2018-09-26,1.0847,1.0847,1.0,1.0,1.0847
137,9268819,160139,2018-09-25,1.0684,1.0684,1.0,1.0,1.0684
138,9238704,160139,2018-09-21,1.0823,1.0823,1.0,1.0,1.0823
139,9231583,160139,2018-09-20,1.06,1.06,1.0,1.0,1.06
140,9214916,160139,2018-09-19,1.0563,1.0563,1.0,1.0,1.0563
141,9194070,160139,2018-09-18,1.0396,1.0396,1.0,1.0,1.0396
142,9186992,160139,2018-09-17,1.028,1.028,1.0,1.0,1.028
143,9148927,160139,2018-09-14,1.0369,1.0369,1.0,1.0,1.0369
144,9148926,160139,2018-09-13,1.0316,1.0316,1.0,1.0,1.0316
145,9125259,160139,2018-09-12,1.0079,1.0079,1.0,1.0,1.0079
146,9105730,160139,2018-09-11,1.0161,1.0161,1.0,1.0,1.0161
147,9101255,160139,2018-09-10,1.0244,1.0244,1.0,1.0,1.0244
148,9070823,160139,2018-09-07,1.0336,1.0336,1.0,1.0,1.0336
149,9063221,160139,2018-09-06,1.0332,1.0332,1.0,1.0,1.0332
150,9042113,160139,2018-09-05,1.0393,1.0393,1.0,1.0,1.0393
151,9013783,160139,2018-09-04,1.0624,1.0624,1.0,1.0,1.0624
152,9013782,160139,2018-09-03,1.0558,1.0558,1.0,1.0,1.0558
153,8981964,160139,2018-08-31,1.0604,1.0604,1.0,1.0,1.0604
154,8973302,160139,2018-08-30,1.0659,1.0659,1.0,1.0,1.0659
155,8957917,160139,2018-08-29,1.0754,1.0754,1.0,1.0,1.0754
156,8947722,160139,2018-08-28,1.0766,1.0766,1.0,1.0,1.0766
157,8931282,160139,2018-08-27,1.0792,1.0792,1.0,1.0,1.0792
158,8901076,160139,2018-08-24,1.0577,1.0577,1.0,1.0,1.0577
159,8894412,160139,2018-08-23,1.0559,1.0559,1.0,1.0,1.0559
160,8889098,160139,2018-08-22,1.0581,1.0581,1.0,1.0,1.0581
161,8862122,160139,2018-08-21,1.0498,1.0498,1.0,1.0,1.0498
162,8853882,160139,2018-08-20,1.0442,1.0442,1.0,1.0,1.0442
163,8815273,160139,2018-08-17,1.0353,1.0353,1.0,1.0,1.0353
164,8805025,160139,2018-08-16,1.0342,1.0342,1.0,1.0,1.0342
165,8790244,160139,2018-08-15,1.0376,1.0376,1.0,1.0,1.0376
166,8776400,160139,2018-08-14,1.0556,1.0556,1.0,1.0,1.0556
167,8762028,160139,2018-08-13,1.0567,1.0567,1.0,1.0,1.0567
168,8732446,160139,2018-08-10,1.0698,1.0698,1.0,1.0,1.0698
169,8726946,160139,2018-08-09,1.0753,1.0753,1.0,1.0,1.0753
170,8706042,160139,2018-08-08,1.0635,1.0635,1.0,1.0,1.0635
171,8692394,160139,2018-08-07,1.0638,1.0638,1.0,1.0,1.0638
172,8679847,160139,2018-08-06,1.0483,1.0483,1.0,1.0,1.0483
173,8651736,160139,2018-08-03,1.0449,1.0449,1.0,1.0,1.0449
174,8644839,160139,2018-08-02,1.0444,1.0444,1.0,1.0,1.0444
175,8627319,160139,2018-08-01,1.0698,1.0698,1.0,1.0,1.0698
176,8609709,160139,2018-07-31,1.0747,1.0747,1.0,1.0,1.0747
177,8594645,160139,2018-07-30,1.0755,1.0755,1.0,1.0,1.0755
178,8572213,160139,2018-07-27,1.0722,1.0722,1.0,1.0,1.0722
179,8563382,160139,2018-07-26,1.0659,1.0659,1.0,1.0,1.0659
180,8547851,160139,2018-07-25,1.0773,1.0773,1.0,1.0,1.0773
181,8534006,160139,2018-07-24,1.0667,1.0667,1.0,1.0,1.0667
182,8528400,160139,2018-07-23,1.0403,1.0403,1.0,1.0,1.0403
183,8494556,160139,2018-07-20,1.0362,1.0362,1.0,1.0,1.0362
184,8483814,160139,2018-07-19,1.0128,1.0128,1.0,1.0,1.0128
185,8476336,160139,2018-07-18,1.0147,1.0147,1.0,1.0,1.0147
186,8462729,160139,2018-07-17,1.015,1.015,1.0,1.0,1.015
187,8449159,160139,2018-07-16,1.023,1.023,1.0,1.0,1.023
188,8412418,160139,2018-07-13,1.0273,1.0273,1.0,1.0,1.0273
189,8405562,160139,2018-07-12,1.0275,1.0275,1.0,1.0,1.0275
190,8382692,160139,2018-07-11,1.0118,1.0118,1.0,1.0,1.0118
191,8368551,160139,2018-07-10,1.0273,1.0273,1.0,1.0,1.0273
192,8352759,160139,2018-07-09,1.0249,1.0249,1.0,1.0,1.0249
193,8320151,160139,2018-07-06,1.0071,1.0071,1.0,1.0,1.0071
194,8313439,160139,2018-07-05,1.0036,1.0036,1.0,1.0,1.0036
195,8293485,160139,2018-07-04,1.0104,1.0104,1.0,1.0,1.0104
196,8257261,160139,2018-07-03,1.0205,1.0205,1.0,1.0,1.0205
197,8254527,160139,2018-07-02,1.0305,1.0305,1.0,1.0,1.0305
198,8220809,160139,2018-06-30,1.0343,1.0343,1.0,1.0,1.0343
199,8220808,160139,2018-06-29,1.0343,1.0343,1.0,1.0,1.0343
200,8208882,160139,2018-06-28,1.0127,1.0127,1.0,1.0,1.0127
201,8199770,160139,2018-06-27,1.0072,1.0072,1.0,1.0,1.0072
202,8095688,160139,2018-06-26,1.0232,1.0232,1.0,1.0,1.0232
203,8075452,160139,2018-06-25,1.0268,1.0268,1.0,1.0,1.0268
204,8037946,160139,2018-06-22,1.0373,1.0373,1.0,1.0,1.0373
205,8030815,160139,2018-06-21,1.0378,1.0378,1.0,1.0,1.0378
206,8008123,160139,2018-06-20,1.0475,1.0475,1.0,1.0,1.0475
207,7993081,160139,2018-06-19,1.0405,1.0405,1.0,1.0,1.0405
208,7923781,160139,2018-06-15,1.0738,1.0738,1.0,1.0,1.0738
209,7913822,160139,2018-06-14,1.076,1.076,1.0,1.0,1.076
210,7895844,160139,2018-06-13,1.0864,1.0864,1.0,1.0,1.0864
211,7876774,160139,2018-06-12,1.099,1.099,1.0,1.0,1.099
212,7855610,160139,2018-06-11,1.0951,1.0951,1.0,1.0,1.0951
213,7834683,160139,2018-06-08,1.0943,1.0943,1.0,1.0,1.0943
214,7807623,160139,2018-06-07,1.1131,1.1131,1.0,1.0,1.1131
215,7774954,160139,2018-06-06,1.1027,1.1027,1.0,1.0,1.1027
216,7766339,160139,2018-06-05,1.1028,1.1028,1.0,1.0,1.1028
217,7750588,160139,2018-06-04,1.1037,1.1037,1.0,1.0,1.1037
218,7705575,160139,2018-06-01,1.0824,1.0824,1.0,1.0,1.0824
219,7695374,160139,2018-05-31,1.0798,1.0798,1.0,1.0,1.0798
220,7676323,160139,2018-05-30,1.0631,1.0631,1.0,1.0,1.0631
221,7654488,160139,2018-05-29,1.0764,1.0764,1.0,1.0,1.0764
222,7636226,160139,2018-05-28,1.0875,1.0875,1.0,1.0,1.0875
223,7594088,160139,2018-05-25,1.0805,1.0805,1.0,1.0,1.0805
224,7578319,160139,2018-05-24,1.0857,1.0857,1.0,1.0,1.0857
225,7578318,160139,2018-05-23,1.0791,1.0791,1.0,1.0,1.0791
226,7556993,160139,2018-05-22,1.1015,1.1015,1.0,1.0,1.1015
227,7536609,160139,2018-05-21,1.1024,1.1024,1.0,1.0,1.1024
228,7518780,160139,2018-05-18,1.1016,1.1016,1.0,1.0,1.1016
229,7493338,160139,2018-05-17,1.0938,1.0938,1.0,1.0,1.0938
230,7466175,160139,2018-05-16,1.107,1.107,1.0,1.0,1.107
231,7451929,160139,2018-05-15,1.103,1.103,1.0,1.0,1.103
232,7433023,160139,2018-05-14,1.1093,1.1093,1.0,1.0,1.1093
233,7392175,160139,2018-05-11,1.0959,1.0959,1.0,1.0,1.0959
234,7378082,160139,2018-05-10,1.0911,1.0911,1.0,1.0,1.0911
235,7361955,160139,2018-05-09,1.0864,1.0864,1.0,1.0,1.0864
236,7343084,160139,2018-05-08,1.0824,1.0824,1.0,1.0,1.0824
237,7324034,160139,2018-05-07,1.0664,1.0664,1.0,1.0,1.0664
238,7279667,160139,2018-05-04,1.0592,1.0592,1.0,1.0,1.0592
239,7266088,160139,2018-05-03,1.0729,1.0729,1.0,1.0,1.0729
240,7252136,160139,2018-05-02,1.0866,1.0866,1.0,1.0,1.0866
241,7183789,160139,2018-04-27,1.0718,1.0718,1.0,1.0,1.0718
242,7170593,160139,2018-04-26,1.0608,1.0608,1.0,1.0,1.0608
243,7161580,160139,2018-04-25,1.0694,1.0694,1.0,1.0,1.0694
244,7146309,160139,2018-04-24,1.0845,1.0845,1.0,1.0,1.0845
245,7130440,160139,2018-04-23,1.0611,1.0611,1.0,1.0,1.0611
246,7085620,160139,2018-04-20,1.0633,1.0633,1.0,1.0,1.0633
247,7077687,160139,2018-04-19,1.0772,1.0772,1.0,1.0,1.0772
248,7059343,160139,2018-04-18,1.0559,1.0559,1.0,1.0,1.0559
249,7042856,160139,2018-04-17,1.0483,1.0483,1.0,1.0,1.0483
250,7025168,160139,2018-04-16,1.0591,1.0591,1.0,1.0,1.0591
251,6980945,160139,2018-04-13,1.0803,1.0803,1.0,1.0,1.0803
252,6970149,160139,2018-04-12,1.0818,1.0818,1.0,1.0,1.0818
253,6952896,160139,2018-04-11,1.0861,1.0861,1.0,1.0,1.0861
254,6934403,160139,2018-04-10,1.0888,1.0888,1.0,1.0,1.0888
255,6914432,160139,2018-04-09,1.0689,1.0689,1.0,1.0,1.0689
256,6855769,160139,2018-04-04,1.0499,1.0499,1.0,1.0,1.0499
257,6836547,160139,2018-04-03,1.0698,1.0698,1.0,1.0,1.0698
258,6814637,160139,2018-04-02,1.0588,1.0588,1.0,1.0,1.0588
259,6767353,160139,2018-03-30,1.0606,1.0606,1.0,1.0,1.0606
260,6756620,160139,2018-03-29,1.0631,1.0631,1.0,1.0,1.0631
261,6739717,160139,2018-03-28,1.0597,1.0597,1.0,1.0,1.0597
262,6721680,160139,2018-03-27,1.0843,1.0843,1.0,1.0,1.0843
263,6702789,160139,2018-03-26,1.0816,1.0816,1.0,1.0,1.0816
264,6655586,160139,2018-03-23,1.0778,1.0778,1.0,1.0,1.0778
265,6646505,160139,2018-03-22,1.1012,1.1012,1.0,1.0,1.1012
266,6628263,160139,2018-03-21,1.1127,1.1127,1.0,1.0,1.1127
267,6608398,160139,2018-03-20,1.1168,1.1168,1.0,1.0,1.1168
268,6586687,160139,2018-03-19,1.1233,1.1233,1.0,1.0,1.1233
269,6563124,160139,2018-03-16,1.1254,1.1254,1.0,1.0,1.1254
270,6550776,160139,2018-03-15,1.1265,1.1265,1.0,1.0,1.1265
271,6541046,160139,2018-03-14,1.125,1.125,1.0,1.0,1.125
272,6514386,160139,2018-03-13,1.1306,1.1306,1.0,1.0,1.1306
273,6474182,160139,2018-03-12,1.1283,1.1283,1.0,1.0,1.1283
274,5149739,160139,2018-03-09,1.108,1.108,1.0,1.0,1.108
275,5137070,160139,2018-03-08,1.0977,1.0977,1.0,1.0,1.0977
276,5137069,160139,2018-03-07,1.0861,1.0861,1.0,1.0,1.0861
277,5127797,160139,2018-03-06,1.0991,1.0991,1.0,1.0,1.0991
278,5092426,160139,2018-03-05,1.0741,1.0741,1.0,1.0,1.0741
279,5092425,160139,2018-03-02,1.09,1.09,1.0,1.0,1.09
280,4943290,160139,2018-03-01,1.1091,1.1091,1.0,1.0,1.1091
281,4943289,160139,2018-02-28,1.1038,1.1038,1.0,1.0,1.1038
282,4943288,160139,2018-02-27,1.1246,1.1246,1.0,1.0,1.1246
283,4943287,160139,2018-02-26,1.1443,1.1443,1.0,1.0,1.1443
284,4943286,160139,2018-02-23,1.1377,1.1377,1.0,1.0,1.1377
285,4943285,160139,2018-02-22,1.1215,1.1215,1.0,1.0,1.1215
286,4943284,160139,2018-02-14,1.0984,1.0984,1.0,1.0,1.0984
287,4943283,160139,2018-02-13,1.0742,1.0742,1.0,1.0,1.0742
288,4943282,160139,2018-02-12,1.0618,1.0618,1.0,1.0,1.0618
289,4943281,160139,2018-02-09,1.0651,1.0651,1.0,1.0,1.0651
290,4943280,160139,2018-02-08,1.0996,1.0996,1.0,1.0,1.0996
291,4943279,160139,2018-02-07,1.1057,1.1057,1.0,1.0,1.1057
292,4943278,160139,2018-02-06,1.1292,1.1292,1.0,1.0,1.1292
293,4943277,160139,2018-02-05,1.192,1.192,1.0,1.0,1.192
294,4943276,160139,2018-02-02,1.1941,1.1941,1.0,1.0,1.1941
295,4943275,160139,2018-02-01,1.1882,1.1882,1.0,1.0,1.1882
296,4943274,160139,2018-01-31,1.2036,1.2036,1.0,1.0,1.2036
297,4943273,160139,2018-01-30,1.1895,1.1895,1.0,1.0,1.1895
298,4943272,160139,2018-01-29,1.2104,1.2104,1.0,1.0,1.2104
299,4943271,160139,2018-01-26,1.2187,1.2187,1.0,1.0,1.2187
300,4943270,160139,2018-01-25,1.1961,1.1961,1.0,1.0,1.1961
301,4943269,160139,2018-01-24,1.2182,1.2182,1.0,1.0,1.2182
302,4943268,160139,2018-01-23,1.2095,1.2095,1.0,1.0,1.2095
303,4943267,160139,2018-01-22,1.1881,1.1881,1.0,1.0,1.1881
304,4943266,160139,2018-01-19,1.1866,1.1866,1.0,1.0,1.1866
305,4943265,160139,2018-01-18,1.1843,1.1843,1.0,1.0,1.1843
306,4943264,160139,2018-01-17,1.163,1.163,1.0,1.0,1.163
307,4943263,160139,2018-01-16,1.157,1.157,1.0,1.0,1.157
308,4943262,160139,2018-01-15,1.134,1.134,1.0,1.0,1.134
309,4943261,160139,2018-01-12,1.1396,1.1396,1.0,1.0,1.1396
310,4943260,160139,2018-01-11,1.128,1.128,1.0,1.0,1.128
311,3243092,160139,2018-01-10,1.1291,1.1291,1.0,1.0,1.1291
312,3243091,160139,2018-01-09,1.1229,1.1229,1.0,1.0,1.1229
313,3243090,160139,2018-01-08,1.1194,1.1194,1.0,1.0,1.1194
314,3243089,160139,2018-01-05,1.119,1.119,1.0,1.0,1.119
315,3243088,160139,2018-01-04,1.1205,1.1205,1.0,1.0,1.1205
316,3243087,160139,2018-01-03,1.1082,1.1082,1.0,1.0,1.1082
317,3243086,160139,2018-01-02,1.109,1.109,1.0,1.0,1.109
318,3243085,160139,2017-12-31,1.0818,1.0818,1.0,1.0,1.0818
319,3243084,160139,2017-12-29,1.0818,1.0818,1.0,1.0,1.0818
320,3243083,160139,2017-12-28,1.0813,1.0813,1.0,1.0,1.0813
321,3243082,160139,2017-12-27,1.0756,1.0756,1.0,1.0,1.0756
322,3243081,160139,2017-12-26,1.0792,1.0792,1.0,1.0,1.0792
323,3243080,160139,2017-12-25,1.0819,1.0819,1.0,1.0,1.0819
324,3243079,160139,2017-12-22,1.0836,1.0836,1.0,1.0,1.0836
325,3243078,160139,2017-12-21,1.0781,1.0781,1.0,1.0,1.0781
326,3243077,160139,2017-12-20,1.0748,1.0748,1.0,1.0,1.0748
327,3243076,160139,2017-12-19,1.0786,1.0786,1.0,1.0,1.0786
328,3243075,160139,2017-12-18,1.0691,1.0691,1.0,1.0,1.0691
329,3243074,160139,2017-12-15,1.0644,1.0644,1.0,1.0,1.0644
330,3243073,160139,2017-12-14,1.0787,1.0787,1.0,1.0,1.0787
331,3243072,160139,2017-12-13,1.0806,1.0806,1.0,1.0,1.0806
332,3243071,160139,2017-12-12,1.0607,1.0607,1.0,1.0,1.0607
333,3243070,160139,2017-12-11,1.071,1.071,1.0,1.0,1.071
334,3243069,160139,2017-12-08,1.0595,1.0595,1.0,1.0,1.0595
335,3243068,160139,2017-12-07,1.0464,1.0464,1.0,1.0,1.0464
336,3243067,160139,2017-12-06,1.0469,1.0469,1.0,1.0,1.0469
337,3243066,160139,2017-12-05,1.0733,1.0733,1.0,1.0,1.0733
338,3243065,160139,2017-12-04,1.0768,1.0768,1.0,1.0,1.0768
