,id,code,day,net_value,sum_value,factor,acc_factor,refactor_net_value
0,12056048,005530,2019-07-15,1.0433,1.0433,1.0,1.0,1.0433
1,12044210,005530,2019-07-12,1.0386,1.0386,1.0,1.0,1.0386
2,12035878,005530,2019-07-11,1.0306,1.0306,1.0,1.0,1.0306
3,12025199,005530,2019-07-10,1.0304,1.0304,1.0,1.0,1.0304
4,12007078,005530,2019-07-09,1.0321,1.0321,1.0,1.0,1.0321
5,11999961,005530,2019-07-08,1.0347,1.0347,1.0,1.0,1.0347
6,11989697,005530,2019-07-05,1.0583,1.0583,1.0,1.0,1.0583
7,11974521,005530,2019-07-04,1.051,1.051,1.0,1.0,1.051
8,11974520,005530,2019-07-03,1.0531,1.0531,1.0,1.0,1.0531
9,11963782,005530,2019-07-02,1.0639,1.0639,1.0,1.0,1.0639
10,11957008,005530,2019-07-01,1.066,1.066,1.0,1.0,1.066
11,11946179,005530,2019-06-30,1.0376,1.0376,1.0,1.0,1.0376
12,11937907,005530,2019-06-28,1.0377,1.0377,1.0,1.0,1.0377
13,11929244,005530,2019-06-27,1.0397,1.0397,1.0,1.0,1.0397
14,11929243,005530,2019-06-26,1.0269,1.0269,1.0,1.0,1.0269
15,11915590,005530,2019-06-25,1.0267,1.0267,1.0,1.0,1.0267
16,11908481,005530,2019-06-24,1.0358,1.0358,1.0,1.0,1.0358
17,11897161,005530,2019-06-21,1.0336,1.0336,1.0,1.0,1.0336
18,11888539,005530,2019-06-20,1.032,1.032,1.0,1.0,1.032
19,11880797,005530,2019-06-19,1.0031,1.0031,1.0,1.0,1.0031
20,11872618,005530,2019-06-18,0.9887,0.9887,1.0,1.0,0.9887
21,11863708,005530,2019-06-17,0.9862,0.9862,1.0,1.0,0.9862
22,11854951,005530,2019-06-14,0.9858,0.9858,1.0,1.0,0.9858
23,11845479,005530,2019-06-13,0.9934,0.9934,1.0,1.0,0.9934
24,11838342,005530,2019-06-12,0.9941,0.9941,1.0,1.0,0.9941
25,11827358,005530,2019-06-11,1.0009,1.0009,1.0,1.0,1.0009
26,11820968,005530,2019-06-10,0.9706,0.9706,1.0,1.0,0.9706
27,11810690,005530,2019-06-06,0.9596,0.9596,1.0,1.0,0.9596
28,11803569,005530,2019-06-05,0.9676,0.9676,1.0,1.0,0.9676
29,11793973,005530,2019-06-04,0.9689,0.9689,1.0,1.0,0.9689
30,11786525,005530,2019-06-03,0.9786,0.9786,1.0,1.0,0.9786
31,11776238,005530,2019-05-31,0.9808,0.9808,1.0,1.0,0.9808
32,11768843,005530,2019-05-30,0.982,0.982,1.0,1.0,0.982
33,11760141,005530,2019-05-29,0.9866,0.9866,1.0,1.0,0.9866
34,11753559,005530,2019-05-28,0.9874,0.9874,1.0,1.0,0.9874
35,11744103,005530,2019-05-27,0.9801,0.9801,1.0,1.0,0.9801
36,11734537,005530,2019-05-24,0.968,0.968,1.0,1.0,0.968
37,11726572,005530,2019-05-23,0.9655,0.9655,1.0,1.0,0.9655
38,11718852,005530,2019-05-22,0.9812,0.9812,1.0,1.0,0.9812
39,11710999,005530,2019-05-21,0.9848,0.9848,1.0,1.0,0.9848
40,11703317,005530,2019-05-20,0.9724,0.9724,1.0,1.0,0.9724
41,11693392,005530,2019-05-17,0.9822,0.9822,1.0,1.0,0.9822
42,11686290,005530,2019-05-16,1.0062,1.0062,1.0,1.0,1.0062
43,11678481,005530,2019-05-15,1.0012,1.0012,1.0,1.0,1.0012
44,11670810,005530,2019-05-14,0.9799,0.9799,1.0,1.0,0.9799
45,11661741,005530,2019-05-13,0.9859,0.9859,1.0,1.0,0.9859
46,11652290,005530,2019-05-10,0.9988,0.9988,1.0,1.0,0.9988
47,11645885,005530,2019-05-09,0.9679,0.9679,1.0,1.0,0.9679
48,11633206,005530,2019-05-08,0.9848,0.9848,1.0,1.0,0.9848
49,11627864,005530,2019-05-07,0.9948,0.9948,1.0,1.0,0.9948
50,11620865,005530,2019-05-06,0.9853,0.9853,1.0,1.0,0.9853
51,11606836,005530,2019-04-30,1.0393,1.0393,1.0,1.0,1.0393
52,11599734,005530,2019-04-29,1.0383,1.0383,1.0,1.0,1.0383
53,11589452,005530,2019-04-26,1.0311,1.0311,1.0,1.0,1.0311
54,11580300,005530,2019-04-25,1.0432,1.0432,1.0,1.0,1.0432
55,11577543,005530,2019-04-24,1.0643,1.0643,1.0,1.0,1.0643
56,11566270,005530,2019-04-23,1.0608,1.0608,1.0,1.0,1.0608
57,11559442,005530,2019-04-22,1.0627,1.0627,1.0,1.0,1.0627
58,11550598,005530,2019-04-19,1.087,1.087,1.0,1.0,1.087
59,11542551,005530,2019-04-18,1.0763,1.0763,1.0,1.0,1.0763
60,11534916,005530,2019-04-17,1.0811,1.0811,1.0,1.0,1.0811
61,11527357,005530,2019-04-16,1.083,1.083,1.0,1.0,1.083
62,11518416,005530,2019-04-15,1.0576,1.0576,1.0,1.0,1.0576
63,11508743,005530,2019-04-12,1.0613,1.0613,1.0,1.0,1.0613
64,11496084,005530,2019-04-11,1.0627,1.0627,1.0,1.0,1.0627
65,11491980,005530,2019-04-10,1.0853,1.0853,1.0,1.0,1.0853
66,11483037,005530,2019-04-09,1.08,1.08,1.0,1.0,1.08
67,11475251,005530,2019-04-08,1.0739,1.0739,1.0,1.0,1.0739
68,11463327,005530,2019-04-04,1.0712,1.0712,1.0,1.0,1.0712
69,11453872,005530,2019-04-03,1.0621,1.0621,1.0,1.0,1.0621
70,11446385,005530,2019-04-02,1.05,1.05,1.0,1.0,1.05
71,11437352,005530,2019-04-01,1.0514,1.0514,1.0,1.0,1.0514
72,11426395,005530,2019-03-29,1.0257,1.0257,1.0,1.0,1.0257
73,11419298,005530,2019-03-28,0.9922,0.9922,1.0,1.0,0.9922
74,11411935,005530,2019-03-27,0.9957,0.9957,1.0,1.0,0.9957
75,11403926,005530,2019-03-26,0.9831,0.9831,1.0,1.0,0.9831
76,11395326,005530,2019-03-25,0.9935,0.9935,1.0,1.0,0.9935
77,11386156,005530,2019-03-22,1.0147,1.0147,1.0,1.0,1.0147
78,11378439,005530,2019-03-21,1.0135,1.0135,1.0,1.0,1.0135
79,11370713,005530,2019-03-20,1.0123,1.0123,1.0,1.0,1.0123
80,11363239,005530,2019-03-19,1.0116,1.0116,1.0,1.0,1.0116
81,11354754,005530,2019-03-18,1.0166,1.0166,1.0,1.0,1.0166
82,11345568,005530,2019-03-15,0.9913,0.9913,1.0,1.0,0.9913
83,11338062,005530,2019-03-14,0.9774,0.9774,1.0,1.0,0.9774
84,11329980,005530,2019-03-13,0.9837,0.9837,1.0,1.0,0.9837
85,11323252,005530,2019-03-12,0.9913,0.9913,1.0,1.0,0.9913
86,11316053,005530,2019-03-11,0.9827,0.9827,1.0,1.0,0.9827
87,11305488,005530,2019-03-08,0.9639,0.9639,1.0,1.0,0.9639
88,11297657,005530,2019-03-07,0.9997,0.9997,1.0,1.0,0.9997
89,11289907,005530,2019-03-06,1.0104,1.0104,1.0,1.0,1.0104
90,11282671,005530,2019-03-05,1.0034,1.0034,1.0,1.0,1.0034
91,11274157,005530,2019-03-04,0.9989,0.9989,1.0,1.0,0.9989
92,11265946,005530,2019-03-01,0.9889,0.9889,1.0,1.0,0.9889
93,11257952,005530,2019-02-28,0.9721,0.9721,1.0,1.0,0.9721
94,11250764,005530,2019-02-27,0.9729,0.9729,1.0,1.0,0.9729
95,11243257,005530,2019-02-26,0.9763,0.9763,1.0,1.0,0.9763
96,11235032,005530,2019-02-25,0.9901,0.9901,1.0,1.0,0.9901
97,11226577,005530,2019-02-22,0.9436,0.9436,1.0,1.0,0.9436
98,11219087,005530,2019-02-21,0.9266,0.9266,1.0,1.0,0.9266
99,11212455,005530,2019-02-20,0.9294,0.9294,1.0,1.0,0.9294
100,11204683,005530,2019-02-19,0.9273,0.9273,1.0,1.0,0.9273
101,11197198,005530,2019-02-18,0.9314,0.9314,1.0,1.0,0.9314
102,11187706,005530,2019-02-15,0.9069,0.9069,1.0,1.0,0.9069
103,11180320,005530,2019-02-14,0.9237,0.9237,1.0,1.0,0.9237
104,11173682,005530,2019-02-13,0.9243,0.9243,1.0,1.0,0.9243
105,11165741,005530,2019-02-12,0.9119,0.9119,1.0,1.0,0.9119
106,11157038,005530,2019-02-11,0.906,0.906,1.0,1.0,0.906
107,11142101,005530,2019-02-01,0.8938,0.8938,1.0,1.0,0.8938
108,11135393,005530,2019-01-31,0.8821,0.8821,1.0,1.0,0.8821
109,11127262,005530,2019-01-30,0.8738,0.8738,1.0,1.0,0.8738
110,11120422,005530,2019-01-29,0.8801,0.8801,1.0,1.0,0.8801
111,11111398,005530,2019-01-28,0.8774,0.8774,1.0,1.0,0.8774
112,11102849,005530,2019-01-25,0.8758,0.8758,1.0,1.0,0.8758
113,11095443,005530,2019-01-24,0.8697,0.8697,1.0,1.0,0.8697
114,11088080,005530,2019-01-23,0.8645,0.8645,1.0,1.0,0.8645
115,11080785,005530,2019-01-22,0.8642,0.8642,1.0,1.0,0.8642
116,11072057,005530,2019-01-21,0.8753,0.8753,1.0,1.0,0.8753
117,11064492,005530,2019-01-18,0.8701,0.8701,1.0,1.0,0.8701
118,11056510,005530,2019-01-17,0.8576,0.8576,1.0,1.0,0.8576
119,11049082,005530,2019-01-16,0.8606,0.8606,1.0,1.0,0.8606
120,11041823,005530,2019-01-15,0.8583,0.8583,1.0,1.0,0.8583
121,11033699,005530,2019-01-14,0.8456,0.8456,1.0,1.0,0.8456
122,11022919,005530,2019-01-11,0.8511,0.8511,1.0,1.0,0.8511
123,11015129,005530,2019-01-10,0.847,0.847,1.0,1.0,0.847
124,11003418,005530,2019-01-09,0.8484,0.8484,1.0,1.0,0.8484
125,10999752,005530,2019-01-08,0.8416,0.8416,1.0,1.0,0.8416
126,10987674,005530,2019-01-07,0.8442,0.8442,1.0,1.0,0.8442
127,10980678,005530,2019-01-04,0.8391,0.8391,1.0,1.0,0.8391
128,10971132,005530,2019-01-03,0.8232,0.8232,1.0,1.0,0.8232
129,10961376,005530,2019-01-02,0.8256,0.8256,1.0,1.0,0.8256
130,10951025,005530,2018-12-31,0.8387,0.8387,1.0,1.0,0.8387
131,10945407,005530,2018-12-28,0.8388,0.8388,1.0,1.0,0.8388
132,10937355,005530,2018-12-27,0.8349,0.8349,1.0,1.0,0.8349
133,10929764,005530,2018-12-26,0.8369,0.8369,1.0,1.0,0.8369
134,10922546,005530,2018-12-25,0.8377,0.8377,1.0,1.0,0.8377
135,10915674,005530,2018-12-24,0.8414,0.8414,1.0,1.0,0.8414
136,10904819,005530,2018-12-21,0.8359,0.8359,1.0,1.0,0.8359
137,10898013,005530,2018-12-20,0.8436,0.8436,1.0,1.0,0.8436
138,10890096,005530,2018-12-19,0.8474,0.8474,1.0,1.0,0.8474
139,10882266,005530,2018-12-18,0.8551,0.8551,1.0,1.0,0.8551
140,10874486,005530,2018-12-17,0.8612,0.8612,1.0,1.0,0.8612
141,10866135,005530,2018-12-14,0.8635,0.8635,1.0,1.0,0.8635
142,10859434,005530,2018-12-13,0.8745,0.8745,1.0,1.0,0.8745
143,10852155,005530,2018-12-12,0.8632,0.8632,1.0,1.0,0.8632
144,10842679,005530,2018-12-11,0.8599,0.8599,1.0,1.0,0.8599
145,10835625,005530,2018-12-10,0.8555,0.8555,1.0,1.0,0.8555
146,10828334,005530,2018-12-07,0.8644,0.8644,1.0,1.0,0.8644
147,10820150,005530,2018-12-06,0.8642,0.8642,1.0,1.0,0.8642
148,10812441,005530,2018-12-05,0.8792,0.8792,1.0,1.0,0.8792
149,10805336,005530,2018-12-04,0.8831,0.8831,1.0,1.0,0.8831
150,10797864,005530,2018-12-03,0.8807,0.8807,1.0,1.0,0.8807
151,10788557,005530,2018-11-30,0.8602,0.8602,1.0,1.0,0.8602
152,10780959,005530,2018-11-29,0.8528,0.8528,1.0,1.0,0.8528
153,10774458,005530,2018-11-28,0.8628,0.8628,1.0,1.0,0.8628
154,10766371,005530,2018-11-27,0.8529,0.8529,1.0,1.0,0.8529
155,10758330,005530,2018-11-26,0.8551,0.8551,1.0,1.0,0.8551
156,10750358,005530,2018-11-23,0.8563,0.8563,1.0,1.0,0.8563
157,10742643,005530,2018-11-22,0.8746,0.8746,1.0,1.0,0.8746
158,10735874,005530,2018-11-21,0.8767,0.8767,1.0,1.0,0.8767
159,10729532,005530,2018-11-20,0.8764,0.8764,1.0,1.0,0.8764
160,10720390,005530,2018-11-19,0.8954,0.8954,1.0,1.0,0.8954
161,10712254,005530,2018-11-16,0.8891,0.8891,1.0,1.0,0.8891
162,10705453,005530,2018-11-15,0.8848,0.8848,1.0,1.0,0.8848
163,10697387,005530,2018-11-14,0.8755,0.8755,1.0,1.0,0.8755
164,10690277,005530,2018-11-13,0.8824,0.8824,1.0,1.0,0.8824
165,10681978,005530,2018-11-12,0.8761,0.8761,1.0,1.0,0.8761
166,10673560,005530,2018-11-09,0.8668,0.8668,1.0,1.0,0.8668
167,10665073,005530,2018-11-08,0.8774,0.8774,1.0,1.0,0.8774
168,10659663,005530,2018-11-07,0.8797,0.8797,1.0,1.0,0.8797
169,10651770,005530,2018-11-06,0.8851,0.8851,1.0,1.0,0.8851
170,10642389,005530,2018-11-05,0.8887,0.8887,1.0,1.0,0.8887
171,10633026,005530,2018-11-02,0.8954,0.8954,1.0,1.0,0.8954
172,10624965,005530,2018-11-01,0.8692,0.8692,1.0,1.0,0.8692
173,10617537,005530,2018-10-31,0.865,0.865,1.0,1.0,0.865
174,10610229,005530,2018-10-30,0.8552,0.8552,1.0,1.0,0.8552
175,10601475,005530,2018-10-29,0.8446,0.8446,1.0,1.0,0.8446
176,10592974,005530,2018-10-26,0.8683,0.8683,1.0,1.0,0.8683
177,10586587,005530,2018-10-25,0.8745,0.8745,1.0,1.0,0.8745
178,10578106,005530,2018-10-24,0.8731,0.8731,1.0,1.0,0.8731
179,10572460,005530,2018-10-23,0.8732,0.8732,1.0,1.0,0.8732
180,10563580,005530,2018-10-22,0.893,0.893,1.0,1.0,0.893
181,10555758,005530,2018-10-19,0.8607,0.8607,1.0,1.0,0.8607
182,10548326,005530,2018-10-18,0.8364,0.8364,1.0,1.0,0.8364
183,10541377,005530,2018-10-17,0.8541,0.8541,1.0,1.0,0.8541
184,10519840,005530,2018-10-16,0.8497,0.8497,1.0,1.0,0.8497
185,10426326,005530,2018-10-15,0.8561,0.8561,1.0,1.0,0.8561
186,9981744,005530,2018-10-12,0.87,0.87,1.0,1.0,0.87
187,9835990,005530,2018-10-11,0.8617,0.8617,1.0,1.0,0.8617
188,9705019,005530,2018-10-10,0.902,0.902,1.0,1.0,0.902
189,9572253,005530,2018-10-09,0.9016,0.9016,1.0,1.0,0.9016
190,9527345,005530,2018-10-08,0.9032,0.9032,1.0,1.0,0.9032
191,9307281,005530,2018-09-28,0.9377,0.9377,1.0,1.0,0.9377
192,9301161,005530,2018-09-27,0.9307,0.9307,1.0,1.0,0.9307
193,9280555,005530,2018-09-26,0.9347,0.9347,1.0,1.0,0.9347
194,9268138,005530,2018-09-25,0.9267,0.9267,1.0,1.0,0.9267
195,9237676,005530,2018-09-21,0.9342,0.9342,1.0,1.0,0.9342
196,9230645,005530,2018-09-20,0.912,0.912,1.0,1.0,0.912
197,9213808,005530,2018-09-19,0.9111,0.9111,1.0,1.0,0.9111
198,9193162,005530,2018-09-18,0.9,0.9,1.0,1.0,0.9
199,9186213,005530,2018-09-17,0.8843,0.8843,1.0,1.0,0.8843
200,9147476,005530,2018-09-14,0.8961,0.8961,1.0,1.0,0.8961
201,9147475,005530,2018-09-13,0.8958,0.8958,1.0,1.0,0.8958
202,9124485,005530,2018-09-12,0.8894,0.8894,1.0,1.0,0.8894
203,9104945,005530,2018-09-11,0.8925,0.8925,1.0,1.0,0.8925
204,9097522,005530,2018-09-10,0.8965,0.8965,1.0,1.0,0.8965
205,9069978,005530,2018-09-07,0.9098,0.9098,1.0,1.0,0.9098
206,9062199,005530,2018-09-06,0.9038,0.9038,1.0,1.0,0.9038
207,9041439,005530,2018-09-05,0.9122,0.9122,1.0,1.0,0.9122
208,9011946,005530,2018-09-04,0.928,0.928,1.0,1.0,0.928
209,9011945,005530,2018-09-03,0.9179,0.9179,1.0,1.0,0.9179
210,8980986,005530,2018-08-31,0.9218,0.9218,1.0,1.0,0.9218
211,8972418,005530,2018-08-30,0.9308,0.9308,1.0,1.0,0.9308
212,8957119,005530,2018-08-29,0.938,0.938,1.0,1.0,0.938
213,8946889,005530,2018-08-28,0.9442,0.9442,1.0,1.0,0.9442
214,8930835,005530,2018-08-27,0.9461,0.9461,1.0,1.0,0.9461
215,8900258,005530,2018-08-24,0.9255,0.9255,1.0,1.0,0.9255
216,8893952,005530,2018-08-23,0.9234,0.9234,1.0,1.0,0.9234
217,8888043,005530,2018-08-22,0.9196,0.9196,1.0,1.0,0.9196
218,8861147,005530,2018-08-21,0.9239,0.9239,1.0,1.0,0.9239
219,8853159,005530,2018-08-20,0.9081,0.9081,1.0,1.0,0.9081
220,8814813,005530,2018-08-17,0.9017,0.9017,1.0,1.0,0.9017
221,8804376,005530,2018-08-16,0.9149,0.9149,1.0,1.0,0.9149
222,8789675,005530,2018-08-15,0.9218,0.9218,1.0,1.0,0.9218
223,8775617,005530,2018-08-14,0.9455,0.9455,1.0,1.0,0.9455
224,8761513,005530,2018-08-13,0.9491,0.9491,1.0,1.0,0.9491
225,8735185,005530,2018-08-10,0.9517,0.9517,1.0,1.0,0.9517
226,8726493,005530,2018-08-09,0.9479,0.9479,1.0,1.0,0.9479
227,8705324,005530,2018-08-08,0.926,0.926,1.0,1.0,0.926
228,8691551,005530,2018-08-07,0.939,0.939,1.0,1.0,0.939
229,8679141,005530,2018-08-06,0.9156,0.9156,1.0,1.0,0.9156
230,8651132,005530,2018-08-03,0.9288,0.9288,1.0,1.0,0.9288
231,8641581,005530,2018-08-02,0.9436,0.9436,1.0,1.0,0.9436
232,8626305,005530,2018-08-01,0.9635,0.9635,1.0,1.0,0.9635
233,8608878,005530,2018-07-31,0.9827,0.9827,1.0,1.0,0.9827
234,8593881,005530,2018-07-30,0.9819,0.9819,1.0,1.0,0.9819
235,8571660,005530,2018-07-27,0.9845,0.9845,1.0,1.0,0.9845
236,8562768,005530,2018-07-26,0.9877,0.9877,1.0,1.0,0.9877
237,8547083,005530,2018-07-25,0.9982,0.9982,1.0,1.0,0.9982
238,8533160,005530,2018-07-24,0.9999,0.9999,1.0,1.0,0.9999
239,8527930,005530,2018-07-23,0.9808,0.9808,1.0,1.0,0.9808
240,8493647,005530,2018-07-20,0.9745,0.9745,1.0,1.0,0.9745
241,8482828,005530,2018-07-19,0.9558,0.9558,1.0,1.0,0.9558
242,8472885,005530,2018-07-18,0.9577,0.9577,1.0,1.0,0.9577
243,8457216,005530,2018-07-17,0.9625,0.9625,1.0,1.0,0.9625
244,8445637,005530,2018-07-16,0.9681,0.9681,1.0,1.0,0.9681
245,8408184,005530,2018-07-13,0.9724,0.9724,1.0,1.0,0.9724
246,8402255,005530,2018-07-12,0.9649,0.9649,1.0,1.0,0.9649
247,8381980,005530,2018-07-11,0.9449,0.9449,1.0,1.0,0.9449
248,8367918,005530,2018-07-10,0.9585,0.9585,1.0,1.0,0.9585
249,8351860,005530,2018-07-09,0.953,0.953,1.0,1.0,0.953
250,8319402,005530,2018-07-06,0.9267,0.9267,1.0,1.0,0.9267
251,8312695,005530,2018-07-05,0.9201,0.9201,1.0,1.0,0.9201
252,8292724,005530,2018-07-04,0.9274,0.9274,1.0,1.0,0.9274
253,8256526,005530,2018-07-03,0.9392,0.9392,1.0,1.0,0.9392
254,8253793,005530,2018-07-02,0.938,0.938,1.0,1.0,0.938
255,8219414,005530,2018-06-30,0.9628,0.9628,1.0,1.0,0.9628
256,8219413,005530,2018-06-29,0.9629,0.9629,1.0,1.0,0.9629
257,8208242,005530,2018-06-28,0.9386,0.9386,1.0,1.0,0.9386
258,8189625,005530,2018-06-27,0.9474,0.9474,1.0,1.0,0.9474
259,8095012,005530,2018-06-26,0.9651,0.9651,1.0,1.0,0.9651
260,8074761,005530,2018-06-25,0.9704,0.9704,1.0,1.0,0.9704
261,8037475,005530,2018-06-22,0.9777,0.9777,1.0,1.0,0.9777
262,8030443,005530,2018-06-21,0.97,0.97,1.0,1.0,0.97
263,8007421,005530,2018-06-20,0.9743,0.9743,1.0,1.0,0.9743
264,7992833,005530,2018-06-19,0.9673,0.9673,1.0,1.0,0.9673
265,7923188,005530,2018-06-15,1.0017,1.0017,1.0,1.0,1.0017
266,7913258,005530,2018-06-14,1.0083,1.0083,1.0,1.0,1.0083
267,7891492,005530,2018-06-13,1.0122,1.0122,1.0,1.0,1.0122
268,7876133,005530,2018-06-12,1.0212,1.0212,1.0,1.0,1.0212
269,7854166,005530,2018-06-11,1.0063,1.0063,1.0,1.0,1.0063
270,7854165,005530,2018-06-08,1.0089,1.0089,1.0,1.0,1.0089
271,7806948,005530,2018-06-07,1.0185,1.0185,1.0,1.0,1.0185
272,7774177,005530,2018-06-06,1.0209,1.0209,1.0,1.0,1.0209
273,7765647,005530,2018-06-05,1.0238,1.0238,1.0,1.0,1.0238
274,7750275,005530,2018-06-04,1.0141,1.0141,1.0,1.0,1.0141
275,7704734,005530,2018-06-01,1.0076,1.0076,1.0,1.0,1.0076
276,7691719,005530,2018-05-31,1.0157,1.0157,1.0,1.0,1.0157
277,7675832,005530,2018-05-30,0.9977,0.9977,1.0,1.0,0.9977
278,7653920,005530,2018-05-29,1.0201,1.0201,1.0,1.0,1.0201
279,7635637,005530,2018-05-28,1.0236,1.0236,1.0,1.0,1.0236
280,7590272,005530,2018-05-25,1.022,1.022,1.0,1.0,1.022
281,7577086,005530,2018-05-24,1.0282,1.0282,1.0,1.0,1.0282
282,7577085,005530,2018-05-23,1.0341,1.0341,1.0,1.0,1.0341
283,7556236,005530,2018-05-22,1.0494,1.0494,1.0,1.0,1.0494
284,7535958,005530,2018-05-21,1.0508,1.0508,1.0,1.0,1.0508
285,7518048,005530,2018-05-18,1.0428,1.0428,1.0,1.0,1.0428
286,7492935,005530,2018-05-17,1.0328,1.0328,1.0,1.0,1.0328
287,7465404,005530,2018-05-16,1.0394,1.0394,1.0,1.0,1.0394
288,7447204,005530,2018-05-15,1.0466,1.0466,1.0,1.0,1.0466
289,7432500,005530,2018-05-14,1.0429,1.0429,1.0,1.0,1.0429
290,7388909,005530,2018-05-11,1.0343,1.0343,1.0,1.0,1.0343
291,7377467,005530,2018-05-10,1.0394,1.0394,1.0,1.0,1.0394
292,7361450,005530,2018-05-09,1.0348,1.0348,1.0,1.0,1.0348
293,7342513,005530,2018-05-08,1.035,1.035,1.0,1.0,1.035
294,7323495,005530,2018-05-07,1.0257,1.0257,1.0,1.0,1.0257
295,7279078,005530,2018-05-04,1.0104,1.0104,1.0,1.0,1.0104
296,7265594,005530,2018-05-03,1.014,1.014,1.0,1.0,1.014
297,7246103,005530,2018-05-02,1.0069,1.0069,1.0,1.0,1.0069
298,7183252,005530,2018-04-27,1.0008,1.0008,1.0,1.0,1.0008
299,7173162,005530,2018-04-26,0.9964,0.9964,1.0,1.0,0.9964
300,7170085,005530,2018-04-25,1.0109,1.0109,1.0,1.0,1.0109
301,7145712,005530,2018-04-24,1.0111,1.0111,1.0,1.0,1.0111
302,7129888,005530,2018-04-23,1.0016,1.0016,1.0,1.0,1.0016
303,7085064,005530,2018-04-20,1.0008,1.0008,1.0,1.0,1.0008
304,6980348,005530,2018-04-13,1.0008,1.0008,1.0,1.0,1.0008
305,6855264,005530,2018-04-04,1.0004,1.0004,1.0,1.0,1.0004
306,6766776,005530,2018-03-30,1.0002,1.0002,1.0,1.0,1.0002
307,6658211,005530,2018-03-23,1.0,1.0,1.0,1.0,1.0
